09 06 69 49 02 29 39 00 01 19 09 49 69 99 01 19 01 19 07 05 59 49 09 59 89 07 08 04 19 01 39 07 79 69 06 01 69 00 03 39 04 03 89 29 03 02 02 29 03 03 02 01 08 39 69 07
90 95 95 50 93 98 20 00 91 50 96 92 99 92 60 92 70 91 40 20 94 92 50 91 97 95 70 20 30 96 10 98 60 97 91 10 40 90 00 96 20 70 98 96 60 30 50 92 60 20 10 20 30 97 97 70
06 02 86 00 01 09 96 66 26 76 01 01 07 05 09 46 46 07 08 04 56 96 86 01 86 46 46 07 46 06 01 36 46 00 03 96 04 16 03 96 03 02 02 26 26 03 16 46 16 03 02 01 08 76 07
66 86 62 96 66 64 26 69 76 60 46 64 46 67 56 64 96 68 86 63 86 64 46 64 46 60 46 69 06 64 36 64 46 69 96 62 16 67 96 60 26 67 26 60 16 65 46 64 16 61 76 69
69 49 29 39 62 19 09 66 64 49 69 99 60 19 19 59 49 09 59 89 64 67 64 19 68 63 39 64 64 60 79 69 64 64 69 39 62 67 89 29 60 67 29 60 65 64 61 39 69
95 95 75 93 98 91 15 96 92 99 92 92 91 15 05 94 92 25 75 55 91 15 97 95 55 75 96 15 98 97 75 91 15 45 90 96 98 15 96 45 25 92 65 85 85 97 97
55 95 57 75 50 15 50 15 54 05 59 25 54 75 55 50 15 59 95 55 58 75 56 15 53 75 54 15 53 45 54 15 52 45 50 25 52 65 58 85 54 85 54
57 57 77 50 87 50 27 47 54 07 59 54 37 55 50 59 97 55 58 67 77 07 87 47 56 47 53 07 97 54 53 54 67 37 87 52 50 67 77 52 58 54 17 54 87 17 77 97 97 07
74 77 75 78 64 34 76 14 70 54 44 71 94 54 75 72 14 44 64 77 70 73 73 04 75 64 34 71 34 34 44 44 64 64 44 79 75 54 64 44 64 54 04 70 74 73 84 77 72 54 24 64 84 78 54 72 84 14 44 77 73 76 70
49 29 39 19 09 49 43 69 99 19 47 19 44 40 59 49 43 09 59 89 44 46 46 47 41 19 47 43 44 44 42 39 46 44 46 79 46 69 44 40 45 46 69 39 42 48 89 29 45 29 48 46 41 41 42 41 44 41 39 69
95 75 93 98 91 15 96 92 99 92 92 91 15 05 94 92 25 75 55 91 15 97 95 55 75 96 15 98 97 75 91 15 45 90 96 98 15 96 45 25 92 65 85 85 97 97
57 50 87 50 27 47 54 07 59 54 37 55 50 59 97 55 58 67 77 07 87 47 56 47 53 07 97 54 53 54 67 37 87 52 50 67 77 52 58 54 17 54 87 17 77 97 97 07
77 87 78 27 76 47 70 07 71 37 75 97 72 67 77 70 07 73 87 73 47 75 47 71 07 79 97 75 67 70 37 74 87 73 67 77 72 17 78 87 72 17 77 73 97 76 97 70 07
75 78 15 76 70 15 71 05 25 75 55 15 72 95 55 77 70 73 73 75 71 15 79 75 15 45 70 74 73 15 45 77 72 25 65 85 78 85 72 77 73 76 70
50 20 00 50 60 70 54 40 20 59 54 55 50 59 55 58 70 20 30 56 10 53 60 54 10 40 53 54 90 00 20 70 52 60 30 50 52 60 58 54 54 20 10 20 30 70
02 62 00 01 09 92 32 92 01 92 01 12 07 12 05 92 09 72 22 22 07 32 22 08 04 01 42 07 06 01 00 03 62 04 42 03 32 52 03 02 22 02 22 32 72 82 52 92 03 32 82 82 42 22 03 02 72 22 01 08 07
29 39 20 19 09 49 28 26 69 99 27 19 21 19 21 20 59 49 25 09 59 22 22 21 89 22 20 19 23 39 79 69 69 39 20 28 89 23 29 22 28 22 23 26 28 25 29 26 21 24 28 22 20 28 22 20 39 69
93 98 91 96 92 83 43 99 92 92 91 94 92 43 91 97 95 73 33 73 96 63 53 43 33 23 98 97 91 53 90 03 96 83 03 33 98 73 23 96 03 23 33 92 03 03 13 83 73 83 97 97
39 19 09 49 34 32 69 99 19 19 59 49 37 09 59 89 33 32 30 19 34 34 33 34 39 79 69 36 69 39 31 33 37 89 32 31 29 30 33 32 29 32 31 31 38 30 39 69
98 78 91 96 92 28 99 92 92 91 94 92 91 97 18 88 95 58 88 08 96 68 98 97 91 90 96 28 48 98 96 28 28 92 58 48 18 28 78 28 18 38 08 97 97
87 86 83 27 47 07 37 97 88 89 88 81 67 77 07 87 47 86 47 86 07 97 83 67 37 89 87 84 67 77 82 85 82 82 84 17 85 87 83 84 17 77 83 97 97 07
78 28 76 70 71 75 72 18 88 58 88 77 70 73 08 73 75 68 71 98 79 75 28 70 74 48 98 73 28 77 72 28 58 48 18 28 78 28 72 18 38 77 73 08 76 70
86 96 66 83 26 76 88 89 88 81 46 46 87 56 96 86 86 46 46 46 06 36 46 96 83 16 89 87 96 84 26 82 26 16 85 82 46 82 84 16 85 87 83 84 83 76
62 66 64 92 32 69 92 60 92 12 12 92 72 22 22 64 67 32 22 64 68 63 42 64 64 60 69 64 64 69 62 42 67 32 52 60 02 22 02 22 32 67 72 82 52 92 60 32 65 82 64 82 61 42 22 02 72 22 69
20 50 28 26 27 60 21 70 21 40 20 25 50 22 22 21 70 22 20 30 10 23 60 10 40 90 00 20 28 70 23 29 60 30 22 28 50 22 23 26 28 25 29 26 60 21 24 28 22 20 10 28 22 20 30 70
00 50 09 60 01 70 01 40 07 20 05 50 09 70 07 20 08 30 04 10 01 60 07 10 06 40 01 90 00 03 20 04 70 03 60 03 30 02 50 02 60 03 20 03 10 02 20 01 30 08 70 07
01 91 11 09 01 11 11 21 11 01 91 21 07 71 11 05 09 91 21 81 07 08 04 41 71 11 01 07 91 06 01 00 03 04 31 03 31 03 02 02 03 21 41 41 61 03 31 31 11 02 01 41 41 08 07
19 11 15 09 49 69 99 11 11 19 11 14 19 12 15 11 12 59 49 09 15 59 18 89 14 19 11 10 15 39 79 69 10 15 69 39 16 89 15 29 29 16 18 16 17 13 11 10 18 14 17 39 69
91 96 92 99 92 01 11 11 92 21 11 01 91 21 71 11 94 92 91 97 21 95 81 41 96 71 11 01 98 97 91 01 90 96 31 98 31 96 92 21 41 41 61 31 31 11 01 41 41 97 97
11 01 11 11 19 21 11 14 01 19 91 12 21 15 71 11 12 91 15 21 18 81 14 41 19 71 11 10 01 15 91 10 01 15 31 16 31 15 21 16 41 18 41 16 61 17 31 13 31 11 10 01 18 41 14 41 17
15 11 11 19 11 14 19 12 15 11 12 05 25 75 55 15 18 95 55 14 75 19 11 10 15 75 10 15 45 16 15 45 25 16 65 85 18 16 17 85 13 11 10 18 14 17
50 60 70 54 40 20 59 54 55 50 59 55 58 70 20 30 56 10 53 60 54 10 40 53 54 90 00 20 70 52 60 30 50 52 60 58 54 54 20 10 20 30 70
09 49 69 99 01 19 01 19 07 05 59 49 09 59 89 07 08 04 19 01 39 07 79 69 06 01 69 00 03 39 04 03 89 29 03 02 02 29 03 03 02 01 08 39 69 07
96 92 26 99 92 76 92 91 94 92 91 97 95 46 46 56 96 86 98 86 46 46 97 46 91 06 36 46 90 96 16 98 96 26 92 26 16 46 16 97 76 97
66 26 69 76 60 46 64 46 67 56 64 96 68 86 63 86 64 46 64 46 60 46 69 06 64 36 64 46 69 96 62 16 67 96 60 26 67 26 60 16 65 46 64 16 61 76 69
64 34 69 60 14 54 44 94 54 14 44 64 67 04 64 68 63 34 34 34 44 44 64 64 44 60 54 69 64 44 64 54 69 62 04 67 74 60 84 67 60 65 54 24 64 84 61 54 84 14 44 69
49 43 69 99 19 47 19 44 40 59 49 43 09 59 89 44 46 46 47 41 19 47 43 44 44 42 39 46 44 46 79 46 69 44 40 45 46 69 39 42 48 89 29 45 29 48 46 41 41 42 41 44 41 39 69
92 32 99 92 92 91 12 12 94 92 91 97 72 22 22 95 32 22 96 42 98 97 91 90 96 62 42 98 32 52 96 02 22 02 22 32 72 82 52 92 32 82 82 42 22 02 72 22 97 97
28 26 27 21 21 20 25 22 22 21 18 88 58 88 22 20 08 68 23 98 20 28 48 98 23 29 22 28 22 23 26 28 25 29 26 21 58 48 24 18 28 78 22 20 28 22 20 18 38 08
83 43 43 88 89 88 81 73 33 87 73 86 63 53 43 33 23 86 53 03 83 03 33 89 87 73 23 03 84 23 33 82 03 85 82 82 84 85 03 13 87 83 84 73 83
34 32 14 54 44 94 54 37 14 44 64 33 32 30 04 64 34 34 33 34 44 44 39 64 64 44 54 64 44 36 64 54 39 04 31 33 37 74 32 31 30 84 33 32 32 54 24 64 84 54 31 31 38 84 14 44 30 39
43 47 44 40 49 43 44 46 46 73 33 73 47 41 63 47 53 43 33 44 44 42 23 46 44 46 46 44 40 53 45 46 03 42 83 03 33 48 73 23 03 45 23 33 03 48 46 41 41 42 03 13 83 41 44 41 73 83
32 92 92 12 12 92 37 72 22 22 33 32 22 30 34 34 33 34 42 39 36 39 62 42 31 33 37 32 31 52 30 02 22 02 22 33 32 72 82 52 92 32 82 82 42 22 31 31 02 72 22 38 30 39
26 27 76 21 21 20 25 22 22 21 46 46 22 20 56 96 86 23 86 46 46 46 06 36 46 96 20 28 16 23 29 96 22 28 22 23 26 28 25 29 26 21 16 24 46 28 16 22 20 28 22 20 76
69 60 19 19 59 49 09 59 89 64 67 64 19 68 63 39 64 64 60 79 69 64 64 69 39 62 67 89 29 60 67 29 60 65 64 61 39 69
99 19 92 19 91 59 94 49 92 09 91 59 97 89 95 19 96 39 98 79 97 69 91 69 90 39 96 89 98 29 96 29 92 39 97 69 97
92 92 91 12 12 94 92 91 97 72 22 22 95 32 22 96 42 98 97 91 90 96 62 42 98 32 52 96 02 22 02 22 32 72 82 52 92 32 82 82 42 22 02 72 22 97 97
27 21 47 21 07 20 25 37 97 22 22 21 67 77 07 22 20 87 47 47 23 07 97 20 28 67 37 87 23 29 22 28 22 23 26 67 77 28 25 29 26 21 24 28 17 22 20 28 87 22 20 17 77 97 97 07
76 70 71 75 72 46 46 77 70 73 73 75 56 96 86 71 86 46 46 79 75 46 06 36 46 96 16 70 74 73 96 26 77 72 26 16 46 16 78 72 77 73 76 70
60 70 40 20 50 64 67 70 20 30 64 68 63 10 64 64 60 69 10 64 40 64 69 90 00 62 20 67 70 60 30 50 67 60 65 64 61 20 10 20 30 69 70
01 11 21 11 01 91 21 07 71 11 05 09 91 21 81 07 08 04 41 71 11 01 07 91 06 01 00 03 04 31 03 31 03 02 02 03 21 41 41 61 03 31 31 11 02 01 41 41 08 07
11 19 21 11 14 01 19 91 12 21 15 71 11 12 91 15 21 18 81 14 41 19 71 11 10 01 15 91 10 01 15 31 16 31 15 21 16 41 18 41 16 61 17 31 13 31 11 10 01 18 41 14 41 17
11 21 11 14 01 19 91 12 21 15 71 11 12 91 15 21 18 81 14 41 19 71 11 10 01 15 91 10 01 15 31 16 31 15 21 16 41 18 41 16 61 17 31 13 31 11 10 01 18 41 14 41 17
19 11 14 19 12 15 11 12 59 49 09 15 59 18 89 14 19 11 10 15 39 79 69 10 15 69 39 16 89 15 29 29 16 18 16 17 13 11 10 18 14 17 39 69
92 91 12 12 94 92 91 97 72 22 22 95 32 22 96 42 98 97 91 90 96 62 42 98 32 52 96 02 22 02 22 32 72 82 52 92 32 82 82 42 22 02 72 22 97 97
21 01 91 21 71 11 20 25 91 22 22 21 81 22 20 41 71 11 01 23 91 01 20 28 31 23 31 29 22 28 22 23 26 28 25 29 26 21 24 41 28 41 61 22 20 31 31 11 28 22 20 01 41 41
11 01 19 91 12 21 15 71 11 12 91 15 21 18 81 14 41 19 71 11 10 01 15 91 10 01 15 31 16 31 15 21 16 41 18 41 16 61 17 31 13 31 11 10 01 18 41 14 41 17
14 19 12 15 54 44 11 12 94 54 15 18 14 44 64 04 64 19 34 11 10 15 34 34 44 44 64 64 44 54 10 64 44 15 64 54 04 16 74 15 84 16 54 24 64 18 84 16 17 54 13 11 10 18 84 14 44 17
47 44 40 07 49 43 37 97 44 46 46 67 77 07 87 47 41 47 43 44 44 42 46 44 46 07 97 46 44 40 45 46 42 67 37 48 87 45 67 77 48 46 41 41 17 42 87 41 44 41 17 77 97 97 07
70 40 71 20 75 50 72 77 70 73 20 73 30 75 71 10 60 79 75 10 40 90 00 20 70 74 73 60 30 50 77 72 60 78 20 10 72 20 77 73 30 76 70
01 91 21 07 71 11 05 09 91 21 81 07 08 04 41 71 11 01 07 91 06 01 00 03 04 31 03 31 03 02 02 03 21 41 41 61 03 31 31 11 02 01 41 41 08 07
19 12 15 11 12 59 49 09 15 59 18 89 14 19 11 10 15 39 79 69 10 15 69 39 16 89 15 29 29 16 18 16 17 13 11 10 18 14 17 39 69
91 21 71 11 94 92 91 97 21 95 81 41 96 71 11 01 98 97 91 01 90 96 31 98 31 96 92 21 41 41 61 31 31 11 01 41 41 97 97
12 15 11 12 92 15 72 22 22 18 14 32 22 19 11 10 15 42 10 15 62 42 16 32 15 52 02 22 02 22 32 72 82 52 92 32 16 82 18 82 16 17 42 22 13 11 10 02 72 22 18 14 17
21 71 11 20 25 91 22 22 21 81 22 20 41 71 11 01 23 91 01 20 28 31 23 31 29 22 28 22 23 26 28 25 29 26 21 24 41 28 41 61 22 20 31 31 11 28 22 20 01 41 41
15 11 12 05 25 75 55 15 18 95 55 14 75 19 11 10 15 75 10 15 45 16 15 45 25 16 65 85 18 16 17 85 13 11 10 18 14 17
54 59 94 54 55 50 59 55 58 14 44 64 04 56 64 34 53 34 34 44 44 64 64 44 54 64 44 53 64 54 04 74 52 84 50 52 58 54 24 64 84 54 84 14 44
44 94 49 54 43 14 44 46 64 46 04 47 64 41 34 47 34 43 34 44 44 42 64 46 64 44 46 54 46 64 44 40 64 45 54 46 04 42 74 48 84 45 54 48 24 46 64 41 84 41 54 42 84 41 14 44 41
40 20 49 43 50 44 46 46 70 20 30 47 41 47 10 43 44 44 42 46 44 46 60 46 10 44 40 45 46 90 00 20 42 70 48 60 30 45 50 60 48 46 41 41 42 20 10 20 41 44 41 30 70
07 05 37 09 97 67 77 07 08 87 04 47 47 01 07 97 06 01 00 03 04 67 03 37 87 03 02 02 67 77 03 17 03 02 87 01 17 77 08 97 97 07
71 75 91 72 21 81 77 70 73 73 75 41 71 11 01 79 75 91 01 31 70 74 73 31 77 72 21 41 41 61 78 31 31 11 72 01 41 41 77 73 76 70
11 91 15 21 18 81 14 41 19 71 11 10 01 15 91 10 01 15 31 16 31 15 21 16 41 18 41 16 61 17 31 13 31 11 10 01 18 41 14 41 17
12 92 15 72 22 22 18 14 32 22 19 11 10 15 42 10 15 62 42 16 32 15 52 02 22 02 22 32 72 82 52 92 32 16 82 18 82 16 17 42 22 13 11 10 02 72 22 18 14 17
20 25 50 22 22 21 70 22 20 30 10 23 60 10 40 90 00 20 28 70 23 29 60 30 22 28 50 22 23 26 28 25 29 26 60 21 24 28 22 20 10 28 22 20 30 70
05 25 75 55 09 15 95 55 07 08 04 75 01 15 07 75 06 01 15 45 00 03 04 03 15 03 02 45 02 25 03 65 85 85 03 02 01 08 07
59 49 54 55 50 09 59 89 55 58 56 19 53 39 79 54 69 53 54 69 39 89 52 29 50 52 29 58 54 54 39 69
94 92 54 91 97 95 14 44 64 04 64 96 34 34 34 44 44 98 64 64 44 97 54 91 64 44 64 54 90 96 04 74 98 96 84 92 54 24 64 84 54 84 14 44 97 97
49 43 09 59 89 44 46 46 47 41 19 47 43 44 44 42 39 46 44 46 79 46 69 44 40 45 46 69 39 42 48 89 29 45 29 48 46 41 41 42 41 44 41 39 69
92 91 97 72 22 22 95 32 22 96 42 98 97 91 90 96 62 42 98 32 52 96 02 22 02 22 32 72 82 52 92 32 82 82 42 22 02 72 22 97 97
25 75 55 15 22 22 21 95 55 22 20 75 15 23 75 15 45 20 28 23 15 29 22 28 45 22 23 26 28 25 29 26 21 65 85 24 28 85 22 20 28 22 20
54 55 50 59 55 58 14 44 64 04 56 64 34 53 34 34 44 44 64 64 44 54 64 44 53 64 54 04 74 52 84 50 52 58 54 24 64 84 54 84 14 44
43 44 46 46 73 33 73 47 41 63 47 53 43 33 44 44 42 23 46 44 46 46 44 40 53 45 46 03 42 83 03 33 48 73 23 03 45 23 33 03 48 46 41 41 42 03 13 83 41 44 41 73 83
37 97 67 77 07 33 32 87 30 47 34 47 34 33 34 39 07 97 36 39 31 67 33 37 87 32 31 30 33 32 67 77 32 17 31 31 87 38 17 77 30 39 97 97 07
75 15 72 95 55 77 70 73 73 75 71 15 79 75 15 45 70 74 73 15 45 77 72 25 65 85 78 85 72 77 73 76 70
55 15 59 95 55 58 75 56 15 53 75 54 15 53 45 54 15 52 45 50 25 52 65 58 85 54 85 54
50 59 55 58 70 20 30 56 10 53 60 54 10 40 53 54 90 00 20 70 52 60 30 50 52 60 58 54 54 20 10 20 30 70
09 59 89 07 08 04 19 01 39 07 79 69 06 01 69 00 03 39 04 03 89 29 03 02 02 29 03 03 02 01 08 39 69 07
91 97 21 95 81 41 96 71 11 01 98 97 91 01 90 96 31 98 31 96 92 21 41 41 61 31 31 11 01 41 41 97 97
15 18 95 55 14 75 19 11 10 15 75 10 15 45 16 15 45 25 16 65 85 18 16 17 85 13 11 10 18 14 17
59 89 55 58 56 19 53 39 79 54 69 53 54 69 39 89 52 29 50 52 29 58 54 54 39 69
97 95 67 77 07 87 47 96 47 98 07 97 91 90 96 67 37 98 87 96 67 77 92 17 87 17 77 97 97 07
72 22 77 70 73 32 22 73 75 71 42 79 75 62 42 70 74 73 32 52 02 22 02 22 32 77 72 82 52 92 32 82 82 78 42 22 02 72 22 77 73 76 70
22 21 32 22 20 42 23 62 20 42 28 32 23 52 29 02 22 28 02 22 23 32 26 72 28 82 25 52 29 92 26 32 21 82 24 82 28 42 22 20 02 28 72 22 20
22 32 22 20 42 23 62 20 42 28 32 23 52 29 02 22 28 02 22 23 32 26 72 28 82 25 52 29 92 26 32 21 82 24 82 28 42 22 20 02 28 72 22 20
21 81 22 20 41 71 11 01 23 91 01 20 28 31 23 31 29 22 28 22 23 26 28 25 29 26 21 24 41 28 41 61 22 20 31 31 11 28 22 20 01 41 41
18 58 88 14 08 19 68 11 10 15 98 10 15 28 16 48 98 15 28 28 16 58 48 18 28 16 17 78 13 11 10 28 18 38 14 17 08
88 58 88 81 08 87 68 86 98 86 28 83 48 89 98 87 28 84 28 82 58 85 48 82 18 82 28 84 78 85 28 87 18 83 38 84 08 83
89 88 81 87 19 86 39 86 79 69 69 39 83 89 87 29 84 82 29 85 82 82 84 85 87 83 84 83 39 69
95 75 96 15 98 97 75 91 15 45 90 96 98 15 96 45 25 92 65 85 85 97 97
55 75 56 15 53 75 54 15 53 45 54 15 52 45 50 25 52 65 58 85 54 85 54
58 08 56 68 53 98 54 53 54 28 48 98 52 28 50 28 52 58 54 48 18 28 78 54 28 18 38 08
88 08 87 68 86 98 86 28 83 48 89 98 87 28 84 28 82 58 85 48 82 18 82 28 84 78 85 28 87 18 83 38 84 08 83
81 87 41 86 71 11 01 86 91 01 83 31 89 87 31 84 82 21 85 82 41 82 84 41 61 85 31 31 11 87 01 83 84 41 41 83
14 64 04 64 19 34 11 10 15 34 34 44 44 64 64 44 54 10 64 44 15 64 54 04 16 74 15 84 16 54 24 64 18 84 16 17 54 13 11 10 18 84 14 44 17
44 64 46 04 47 64 41 34 47 34 43 34 44 44 42 64 46 64 44 46 54 46 64 44 40 64 45 54 46 04 42 74 48 84 45 54 48 24 46 64 41 84 41 54 42 84 41 14 44 41
46 46 47 56 41 96 86 47 43 44 44 42 86 46 44 46 46 06 44 40 36 45 46 96 42 16 48 96 45 26 26 16 48 46 41 41 16 42 41 44 41 76
64 67 04 64 68 63 34 34 34 44 44 64 64 44 60 54 69 64 44 64 54 69 62 04 67 74 60 84 67 60 65 54 24 64 84 61 54 84 14 44 69
46 47 56 41 96 86 47 43 44 44 42 86 46 44 46 46 06 44 40 36 45 46 96 42 16 48 96 45 26 26 16 48 46 41 41 16 42 41 44 41 76
67 07 87 47 64 68 63 47 64 64 60 07 97 69 64 64 69 62 67 37 87 60 67 77 60 65 64 61 17 87 17 77 97 69 97 07
77 07 73 87 73 47 75 47 71 07 79 97 75 67 70 37 74 87 73 67 77 72 17 78 87 72 17 77 73 97 76 97 70 07
70 73 20 73 30 75 71 10 60 79 75 10 40 90 00 20 70 74 73 60 30 50 77 72 60 78 20 10 72 20 77 73 30 76 70
07 08 87 04 47 47 01 07 97 06 01 00 03 04 67 03 37 87 03 02 02 67 77 03 17 03 02 87 01 17 77 08 97 97 07
73 73 75 63 71 53 43 33 23 79 75 53 03 83 70 03 33 74 73 23 03 23 33 77 72 03 78 03 13 72 83 77 73 83 76 70
33 73 30 63 34 53 34 43 33 34 23 39 53 36 03 39 83 31 03 33 37 73 32 23 31 03 30 23 33 32 03 32 03 31 13 31 83 38 73 30 83 39
32 30 34 34 33 34 42 39 36 39 62 42 31 33 37 32 31 52 30 02 22 02 22 33 32 72 82 52 92 32 82 82 42 22 31 31 02 72 22 38 30 39
22 42 23 62 20 42 28 32 23 52 29 02 22 28 02 22 23 32 26 72 28 82 25 52 29 92 26 32 21 82 24 82 28 42 22 20 02 28 72 22 20
20 30 10 23 60 10 40 90 00 20 28 70 23 29 60 30 22 28 50 22 23 26 28 25 29 26 60 21 24 28 22 20 10 28 22 20 30 70
08 04 68 01 98 07 06 01 00 03 04 28 03 48 98 03 02 28 02 28 03 58 48 18 28 78 03 02 28 01 18 38 08 07
87 47 86 47 86 07 97 83 67 37 89 87 84 67 77 82 85 82 82 84 17 85 87 83 84 17 77 83 97 97 07
73 75 63 71 53 43 33 23 79 75 53 03 83 70 03 33 74 73 23 03 23 33 77 72 03 78 03 13 72 83 77 73 83 76 70
30 34 10 34 33 34 39 60 10 40 36 90 00 39 20 31 70 33 37 32 31 60 30 50 33 32 60 32 20 31 31 10 20 38 30 39 70
04 64 34 01 34 34 44 44 64 64 44 07 54 06 64 44 01 64 54 00 03 04 03 74 03 02 84 02 03 54 24 64 84 54 03 02 01 84 14 44 08 07
47 41 47 43 44 44 42 46 44 46 07 97 46 44 40 45 46 42 67 37 48 87 45 67 77 48 46 41 41 17 42 87 41 44 41 17 77 97 97 07
75 71 15 79 75 15 45 70 74 73 15 45 77 72 25 65 85 78 85 72 77 73 76 70
56 96 86 53 86 46 46 54 46 06 53 36 54 46 96 16 52 96 50 26 52 26 16 58 54 46 16 54 76
64 68 63 34 34 34 44 44 64 64 44 60 54 69 64 44 64 54 69 62 04 67 74 60 84 67 60 65 54 24 64 84 61 54 84 14 44 69
41 47 71 11 01 43 44 44 42 46 44 46 46 91 44 40 01 45 46 42 31 48 31 45 21 48 46 41 41 61 42 31 31 11 01 41 44 41
19 11 10 15 39 79 69 10 15 69 39 16 89 15 29 29 16 18 16 17 13 11 10 18 14 17 39 69
96 86 98 86 46 46 97 46 91 06 36 46 90 96 16 98 96 26 92 26 16 46 16 97 76 97
68 63 98 64 64 60 69 64 64 69 62 28 67 48 98 60 28 67 28 60 65 58 48 64 18 28 61 78 28 18 38 08 69
86 86 46 46 46 06 36 46 96 83 16 89 87 96 84 26 82 26 16 85 82 46 82 84 16 85 87 83 84 83 76
63 53 43 33 23 64 64 60 69 64 53 64 69 03 62 83 67 03 33 73 23 60 03 23 33 67 60 03 65 64 61 03 13 83 73 83 69
34 34 33 34 44 44 39 64 64 44 54 64 44 36 64 54 39 04 31 33 37 74 32 31 30 84 33 32 32 54 24 64 84 54 31 31 38 84 14 44 30 39
47 43 44 44 42 46 44 46 07 97 46 44 40 45 46 42 67 37 48 87 45 67 77 48 46 41 41 17 42 87 41 44 41 17 77 97 97 07
71 01 79 75 91 01 31 70 74 73 31 77 72 21 41 41 61 78 31 31 11 72 01 41 41 77 73 76 70
11 01 15 91 10 01 15 31 16 31 15 21 16 41 18 41 16 61 17 31 13 31 11 10 01 18 41 14 41 17
10 15 60 10 40 15 90 00 20 16 70 15 60 30 50 60 16 18 16 17 20 13 11 10 20 18 14 17 30 70
01 07 91 06 01 00 03 04 31 03 31 03 02 02 03 21 41 41 61 03 31 31 11 02 01 41 41 08 07
15 75 10 15 45 16 15 45 25 16 65 85 18 16 17 85 13 11 10 18 14 17
53 43 33 23 54 53 54 03 83 03 33 73 23 52 03 50 23 33 52 03 58 54 54 03 13 83 73 83
34 33 34 44 44 39 64 64 44 54 64 44 36 64 54 39 04 31 33 37 74 32 31 30 84 33 32 32 54 24 64 84 54 31 31 38 84 14 44 30 39
43 44 44 42 23 46 44 46 46 44 40 53 45 46 03 42 83 03 33 48 73 23 03 45 23 33 03 48 46 41 41 42 03 13 83 41 44 41 73 83
33 23 39 53 36 03 39 83 31 03 33 37 73 32 23 31 03 30 23 33 32 03 32 03 31 13 31 83 38 73 30 83 39
34 44 39 64 64 44 54 64 44 36 64 54 39 04 31 33 37 74 32 31 30 84 33 32 32 54 24 64 84 54 31 31 38 84 14 44 30 39
44 42 64 46 64 44 46 54 46 64 44 40 64 45 54 46 04 42 74 48 84 45 54 48 24 46 64 41 84 41 54 42 84 41 14 44 41
44 64 46 64 44 46 54 46 64 44 40 64 45 54 46 04 42 74 48 84 45 54 48 24 46 64 41 84 41 54 42 84 41 14 44 41
42 46 44 46 46 44 40 45 46 62 42 48 32 52 02 22 45 02 22 32 72 82 52 92 32 48 82 46 41 82 41 42 22 02 72 22 41 44 41
23 53 03 20 28 83 03 33 73 23 29 03 22 28 22 23 33 26 28 25 29 26 03 21 24 28 22 20 03 13 28 22 20 83 73 83
39 79 69 36 69 39 31 33 37 89 32 31 29 30 33 32 29 32 31 31 38 30 39 69
98 97 91 90 96 28 48 98 96 28 28 92 58 48 18 28 78 28 18 38 08 97 97
86 46 46 46 06 36 46 96 83 16 89 87 96 84 26 82 26 16 85 82 46 82 84 16 85 87 83 84 83 76
64 64 44 60 54 69 64 44 64 54 69 62 04 67 74 60 84 67 60 65 54 24 64 84 61 54 84 14 44 69
46 44 46 46 06 44 40 36 45 46 96 42 16 48 96 45 26 26 16 48 46 41 41 16 42 41 44 41 76
64 60 54 69 64 44 64 54 69 62 04 67 74 60 84 67 60 65 54 24 64 84 61 54 84 14 44 69
44 54 46 64 44 40 64 45 54 46 04 42 74 48 84 45 54 48 24 46 64 41 84 41 54 42 84 41 14 44 41
46 46 06 44 40 36 45 46 96 42 16 48 96 45 26 26 16 48 46 41 41 16 42 41 44 41 76
60 69 10 64 40 64 69 90 00 62 20 67 70 60 30 50 67 60 65 64 61 20 10 20 30 69 70
07 97 06 01 00 03 04 67 03 37 87 03 02 02 67 77 03 17 03 02 87 01 17 77 08 97 97 07
79 75 69 69 39 70 74 89 73 29 77 72 29 78 72 77 73 39 76 69 70
97 91 90 96 67 37 98 87 96 67 77 92 17 87 17 77 97 97 07
75 15 45 70 74 73 15 45 77 72 25 65 85 78 85 72 77 73 76 70
54 64 44 53 64 54 04 74 52 84 50 52 58 54 24 64 84 54 84 14 44
46 06 44 40 36 45 46 96 42 16 48 96 45 26 26 16 48 46 41 41 16 42 41 44 41 76
69 64 64 69 39 62 67 89 29 60 67 29 60 65 64 61 39 69
91 01 90 96 31 98 31 96 92 21 41 41 61 31 31 11 01 41 41 97 97
10 40 15 90 00 20 16 70 15 60 30 50 60 16 18 16 17 20 13 11 10 20 18 14 17 30 70
06 01 36 46 00 03 96 04 16 03 96 03 02 02 26 26 03 16 46 16 03 02 01 08 76 07
64 64 54 69 62 04 67 74 60 84 67 60 65 54 24 64 84 61 54 84 14 44 69
44 64 45 54 46 04 42 74 48 84 45 54 48 24 46 64 41 84 41 54 42 84 41 14 44 41
40 45 46 90 00 20 42 70 48 60 30 45 50 60 48 46 41 41 42 20 10 20 41 44 41 30 70
01 00 03 04 31 03 31 03 02 02 03 21 41 41 61 03 31 31 11 02 01 41 41 08 07
15 45 16 15 45 25 16 65 85 18 16 17 85 13 11 10 18 14 17
53 54 03 83 03 33 73 23 52 03 50 23 33 52 03 58 54 54 03 13 83 73 83
36 46 39 96 31 16 33 37 32 31 96 30 33 32 26 26 32 16 46 16 31 31 38 30 39 76
64 54 69 62 04 67 74 60 84 67 60 65 54 24 64 84 61 54 84 14 44 69
45 46 42 48 15 45 25 65 85 48 46 41 41 85 42 41 44 41
54 04 74 52 84 50 52 58 54 24 64 84 54 84 14 44
46 96 42 16 48 96 45 26 26 16 48 46 41 41 16 42 41 44 41 76
69 39 62 67 89 29 60 67 29 60 65 64 61 39 69
90 96 20 70 98 96 60 30 50 92 60 20 10 20 30 97 97 70
00 20 04 70 03 60 03 30 02 50 02 60 03 20 03 10 02 20 01 30 08 70 07
03 04 83 03 33 73 23 03 02 02 23 33 03 03 13 02 01 83 73 08 83 07
39 31 33 37 89 32 31 29 30 33 32 29 32 31 31 38 30 39 69
96 16 98 96 26 92 26 16 46 16 97 76 97
62 42 67 32 52 60 02 22 02 22 32 67 72 82 52 92 60 32 65 82 64 82 61 42 22 02 72 22 69
20 28 70 23 29 60 30 22 28 50 22 23 26 28 25 29 26 60 21 24 28 22 20 10 28 22 20 30 70
04 03 74 03 02 84 02 03 54 24 64 84 54 03 02 01 84 14 44 08 07
42 48 32 52 02 22 45 02 22 32 72 82 52 92 32 48 82 46 41 82 41 42 22 02 72 22 41 44 41
28 48 98 23 29 22 28 22 23 26 28 25 29 26 21 58 48 24 18 28 78 22 20 28 22 20 18 38 08
83 03 33 89 87 73 23 03 84 23 33 82 03 85 82 82 84 85 03 13 87 83 84 73 83
31 33 37 32 31 30 33 32 32 21 41 41 61 31 31 11 01 38 41 41 30 39
16 15 96 26 26 16 46 18 16 17 13 11 10 18 14 17 76
67 37 87 60 67 77 60 65 64 61 17 87 17 77 97 69 97 07
70 74 73 60 30 50 77 72 60 78 20 10 72 20 77 73 30 76 70
03 73 23 03 02 02 23 33 03 03 13 02 01 83 73 08 83 07
33 73 32 23 31 03 30 23 33 32 03 32 03 31 13 31 83 38 73 30 83 39
37 87 32 31 30 33 32 67 77 32 17 31 31 87 38 17 77 30 39 97 97 07
74 73 84 77 72 54 24 64 84 78 54 72 84 14 44 77 73 76 70
48 98 28 45 28 58 48 46 41 18 28 41 78 42 28 18 38 41 44 41 08
89 87 29 84 82 29 85 82 82 84 85 87 83 84 83 39 69
98 96 28 28 92 58 48 18 28 78 28 18 38 08 97 97
87 84 67 77 82 85 82 82 84 17 85 87 83 84 17 77 83 97 97 07
73 23 03 23 33 77 72 03 78 03 13 72 83 77 73 83 76 70
32 31 52 30 02 22 02 22 33 32 72 82 52 92 32 82 82 42 22 31 31 02 72 22 38 30 39
23 29 03 22 28 22 23 33 26 28 25 29 26 03 21 24 28 22 20 03 13 28 22 20 83 73 83
31 30 33 32 32 21 41 41 61 31 31 11 01 38 41 41 30 39
15 45 25 16 65 85 18 16 17 85 13 11 10 18 14 17
52 02 22 50 02 22 32 72 82 52 92 32 58 54 82 82 54 42 22 02 72 22
29 22 28 22 23 26 28 25 29 26 21 24 28 22 20 28 22 20 39 69
96 26 92 26 16 46 16 97 76 97
60 30 50 67 60 65 64 61 20 10 20 30 69 70
03 02 02 23 33 03 03 13 02 01 83 73 08 83 07
30 50 33 32 60 32 20 31 31 10 20 38 30 39 70
02 02 22 32 72 82 52 92 03 32 82 82 42 22 03 02 72 22 01 08 07
22 02 22 23 32 26 72 28 82 25 52 29 92 26 32 21 82 24 82 28 42 22 20 02 28 72 22 20
28 22 23 26 28 25 29 26 21 58 48 24 18 28 78 22 20 28 22 20 18 38 08
84 82 85 54 82 24 64 82 84 85 54 87 83 84 14 44 83
45 25 65 85 48 46 41 41 85 42 41 44 41
50 52 60 58 54 54 20 10 20 30 70
02 32 72 82 52 92 03 32 82 82 42 22 03 02 72 22 01 08 07
22 32 26 72 28 82 25 52 29 92 26 32 21 82 24 82 28 42 22 20 02 28 72 22 20
23 26 28 25 29 26 03 21 24 28 22 20 03 13 28 22 20 83 73 83
33 03 32 03 31 13 31 83 38 73 30 83 39
32 72 82 52 92 32 82 82 42 22 31 31 02 72 22 38 30 39
26 28 25 29 26 21 16 24 46 28 16 22 20 28 22 20 76
67 60 65 64 61 17 87 17 77 97 69 97 07
77 17 78 87 72 17 77 73 97 76 97 70 07
72 82 52 92 32 82 82 78 42 22 02 72 22 77 73 76 70
28 25 29 26 21 58 48 24 18 28 78 22 20 28 22 20 18 38 08
82 52 92 32 85 82 82 84 85 42 22 02 87 72 22 83 84 83
25 29 26 21 65 85 24 28 85 22 20 28 22 20
52 92 32 58 54 82 82 54 42 22 02 72 22
29 26 21 24 28 22 20 28 22 20 39 69
92 32 82 82 42 22 02 72 22 97 97
26 21 16 24 46 28 16 22 20 28 22 20 76
60 65 64 61 20 10 20 30 69 70
03 03 13 02 01 83 73 08 83 07
32 82 82 42 22 31 31 02 72 22 38 30 39
21 24 41 28 41 61 22 20 31 31 11 28 22 20 01 41 41
16 46 18 16 17 13 11 10 18 14 17 76
65 85 64 61 85 69
58 54 48 18 28 78 54 28 18 38 08
85 82 82 84 85 87 83 84 83
54 24 64 84 54 84 14 44
48 46 41 18 28 41 78 42 28 18 38 41 44 41 08
82 82 84 85 42 22 02 87 72 22 83 84 83
24 64 28 84 54 22 20 28 22 20 84 14 44
46 41 41 16 42 41 44 41 76
64 84 61 54 84 14 44 69
41 41 61 42 31 31 11 01 41 44 41
18 28 16 17 78 13 11 10 28 18 38 14 17 08
82 84 85 42 22 02 87 72 22 83 84 83
28 78 22 20 28 22 20 18 38 08
84 85 54 87 83 84 14 44 83
41 61 42 31 31 11 01 41 44 41
16 17 13 11 10 18 14 17 76
61 31 31 11 01 41 41 69
17 13 11 10 87 18 14 17 77 97 97 07
78 28 72 18 38 77 73 08 76 70
85 87 83 84 83
54 84 14 44
42 02 72 22 41 44 41
22 02 28 72 22 20
20 10 28 22 20 30 70
03 13 02 01 83 73 08 83 07
31 31 11 01 38 41 41 30 39
13 11 10 18 83 14 17 73 83
31 01 38 41 41 30 39
11 01 18 41 14 41 17
10 20 18 14 17 30 70
02 72 22 01 08 07
28 22 20 18 38 08
87 83 84 17 77 83 97 97 07
72 77 73 76 70
20 30 70
01 41 41 08 07
18 38 14 17 08
83 84 73 83
38 30 08 39
84 14 44 83
41 44 41
14 17
17 97 97 07
77 97 76 97 70 07
73 83 76 70
30 39 70
08 07
39 69
97 97 07
76 70
97 07
<------------Next-300-Signals------------>
54 58 54 52 57 54 58 53 04 56 51 50 14 57 74 34 24 50 58 64 34 24 44 14 44 44 64 52 24 58 55 53 59 94 24 51 64 74 52 24 53 55 57 64 54 55 56 24 52 34 84 50 04 64 24 44 24 51
48 98 38 38 58 98 88 45 28 08 78 40 58 38 47 18 43 78 08 43 43 45 58 98 43 41 44 46 44 44 41 49 18 28 68 45 58 38 42 43 43 45 47 08 88 46 40 42 48 88 45 46 48 44 42 48
87 83 87 37 82 27 87 88 81 57 81 87 83 37 83 89 97 07 27 17 47 67 85 07 37 07 89 86 57 80 07 82 17 67 97 27 83 86 85 27 80 86 97 47 67 77 88 81 37 77 57 27 27 88 84 87 87
76 73 73 71 79 72 78 73 75 72 06 73 70 75 56 73 71 70 78 36 86 74 76 26 36 71 46 73 16 73 71 16 16 86 72 86 26 36 74 71 16 16 77 71 77 73 70 26 79 06 06 46 56 73 46 73 06 71
61 71 81 81 21 62 31 67 51 71 62 62 21 63 64 60 01 41 71 67 31 41 64 01 71 61 31 69 68 62 31 51 64 69 71 60 01 11 01 67 71 81 11 62 69 64 62 61 64 63 71 51
12 82 12 12 52 72 22 10 02 92 92 72 13 62 17 18 14 62 62 12 32 82 12 17 12 14 16 12 16 18 16 92 52 22 72 62 02 42 13 12 52 16 11 10 16 13 11 19 92 62 62 02 12 42 52 32 42 12 12
29 27 25 79 25 20 22 28 89 29 29 20 21 27 89 20 21 25 24 39 26 23 24 49 27 69 28 22 27 24 20 25 59 24 26 69 39 24 39 19 09 26 27 79 69 25 23 24 20 27 24 24 25
98 38 38 58 98 88 28 08 78 58 38 97 92 92 18 78 93 08 58 98 97 18 92 28 68 58 38 94 93 97 90 08 88 93 92 90 90 48 88 48 48
83 87 73 73 82 87 88 81 81 87 83 73 83 89 53 13 73 73 85 43 89 93 86 43 43 80 63 82 43 23 73 73 83 33 86 85 80 53 86 43 33 13 43 93 13 33 88 81 93 53 73 23 73 88 84 87 73 63 87
38 37 38 58 98 88 28 08 78 37 35 58 38 30 30 31 35 18 37 78 36 08 34 32 58 39 98 36 34 31 30 18 33 31 28 68 58 38 33 31 35 36 39 33 39 08 88 35 37 35 35 34 48 88 48 30 32 48
87 37 82 27 87 88 81 57 81 87 83 37 83 89 97 07 27 17 47 67 85 07 37 07 89 86 57 80 07 82 17 67 97 27 83 86 85 27 80 86 97 47 67 77 88 81 37 77 57 27 27 88 84 87 87
73 73 71 79 72 78 83 73 83 75 53 72 13 73 70 75 73 71 43 70 78 93 74 43 43 76 63 43 23 71 73 73 71 83 33 72 53 43 33 13 43 93 74 71 77 71 13 33 93 53 77 73 70 79 23 73 73 63 71
37 38 27 87 57 87 37 35 38 97 30 07 30 27 31 17 47 67 35 07 37 07 36 57 34 32 07 39 36 34 17 67 31 97 30 27 33 31 27 38 33 31 35 36 39 97 47 67 77 33 39 35 37 77 35 57 27 35 27 34 87 30 32 87
73 71 79 72 78 83 73 83 75 53 72 13 73 70 75 73 71 43 70 78 93 74 43 43 76 63 43 23 71 73 73 71 83 33 72 53 43 33 13 43 93 74 71 77 71 13 33 93 53 77 73 70 79 23 73 73 63 71
38 58 98 88 28 08 78 37 35 58 38 30 30 31 35 18 37 78 36 08 34 32 58 39 98 36 34 31 30 18 33 31 28 68 58 38 33 31 35 36 39 33 39 08 88 35 37 35 35 34 48 88 48 30 32 48
82 12 87 88 81 12 52 72 22 81 87 83 83 89 02 92 92 72 62 85 89 62 86 62 12 32 80 82 12 12 12 83 92 86 85 52 22 72 80 86 62 02 42 12 52 88 81 92 62 62 02 12 42 52 88 84 87 32 42 87 12 12
27 25 87 25 20 57 22 28 87 37 97 29 29 20 07 21 27 17 47 67 07 37 07 20 21 25 57 24 07 26 23 17 24 67 97 27 28 22 27 24 20 25 24 26 97 24 47 67 77 37 77 57 26 27 25 23 24 20 27 87 24 24 87 25
71 79 81 72 81 78 73 75 72 21 73 31 70 75 73 51 71 70 78 21 74 76 01 41 71 73 31 41 73 01 71 61 31 72 31 51 74 71 01 11 01 77 71 81 11 77 73 70 79 61 73 73 71 51
12 12 52 72 22 10 02 92 92 72 13 62 17 18 14 62 62 12 32 82 12 17 12 14 16 12 16 18 16 92 52 22 72 62 02 42 13 12 52 16 11 10 16 13 11 19 92 62 62 02 12 42 52 32 42 12 12
25 25 45 20 05 22 28 35 05 75 29 29 20 21 27 75 35 85 20 21 25 24 45 05 26 23 24 27 28 85 22 27 24 45 05 55 20 25 24 35 26 45 24 35 35 55 26 27 25 23 35 55 24 20 05 27 45 24 24 25
58 98 88 54 52 57 28 08 78 54 58 38 53 56 51 18 50 78 08 57 50 58 98 18 28 68 52 58 55 53 38 59 51 52 08 88 53 55 57 54 55 56 52 48 88 50 48 48 51
87 88 81 57 81 87 83 37 83 89 97 07 27 17 47 67 85 07 37 07 89 86 57 80 07 82 17 67 97 27 83 86 85 27 80 86 97 47 67 77 88 81 37 77 57 27 27 88 84 87 87
79 72 78 73 89 75 29 29 72 73 70 75 73 71 70 78 89 74 76 39 71 73 49 73 71 69 72 59 69 39 74 71 77 71 39 19 77 73 70 09 79 69 73 73 71
98 28 08 78 58 38 97 92 92 18 78 93 08 58 98 97 18 92 28 68 58 38 94 93 97 90 08 88 93 92 90 90 48 88 48 48
88 28 81 08 87 78 83 58 83 38 89 18 85 78 89 08 86 58 80 98 82 18 83 28 86 68 85 58 80 38 86 08 88 81 48 88 84 48 87 48 87
81 81 87 83 83 89 21 31 51 85 71 89 86 21 80 82 01 41 71 31 41 01 71 61 83 31 86 85 80 86 31 51 71 01 11 01 71 88 81 11 61 88 84 87 87 71 51
12 52 72 22 10 02 92 92 72 13 62 17 18 14 62 62 12 32 82 12 17 12 14 16 12 16 18 16 92 52 22 72 62 02 42 13 12 52 16 11 10 16 13 11 19 92 62 62 02 12 42 52 32 42 12 12
25 45 20 05 22 28 35 05 75 29 29 20 21 27 75 35 85 20 21 25 24 45 05 26 23 24 27 28 85 22 27 24 45 05 55 20 25 24 35 26 45 24 35 35 55 26 27 25 23 35 55 24 20 05 27 45 24 24 25
54 52 57 54 58 53 04 56 51 50 14 57 74 34 24 50 58 64 34 24 44 14 44 44 64 52 24 58 55 53 59 94 24 51 64 74 52 24 53 55 57 64 54 55 56 24 52 34 84 50 04 64 24 44 24 51
45 05 35 40 05 75 47 75 35 85 43 25 43 43 45 05 43 41 44 46 44 44 41 49 85 45 05 55 25 42 43 35 43 45 47 35 35 55 46 25 40 35 55 42 05 48 45 46 48 44 42 48 25
52 57 72 22 54 58 53 02 92 92 72 62 56 51 50 62 62 12 57 32 50 58 82 12 12 12 92 52 22 72 58 55 53 62 02 59 42 51 12 52 53 55 57 92 62 62 54 02 55 56 12 42 52 50 32 42 12 51 12
20 22 28 10 40 30 29 29 20 21 30 27 70 50 70 20 21 25 24 50 80 26 60 23 24 30 27 28 22 27 24 80 20 25 24 26 24 60 10 90 70 26 27 90 90 25 40 23 24 20 27 50 30 24 24 25
05 08 35 05 75 02 07 06 04 75 35 85 07 07 08 25 45 05 07 01 01 85 45 05 55 02 25 35 45 01 01 08 35 35 55 09 06 06 25 02 35 55 05 45 04 06 25
57 87 37 54 58 97 53 07 27 17 47 56 67 51 50 07 37 07 57 50 58 07 17 67 97 27 52 27 58 55 53 59 51 97 52 47 67 77 53 37 77 55 57 27 54 55 56 52 27 50 87 87 51
72 78 73 75 02 92 92 72 62 73 70 75 73 71 70 78 62 62 12 74 32 76 82 12 71 12 73 73 12 71 92 52 22 72 62 02 42 12 74 52 71 77 71 77 73 70 92 62 79 62 02 12 42 52 73 73 32 42 71 12 12
22 02 29 92 29 92 20 72 21 62 27 62 20 62 21 12 25 32 24 82 26 12 23 12 24 12 27 92 28 52 22 27 72 24 62 20 02 25 42 24 12 26 52 24 92 26 62 27 62 25 02 23 12 24 42 20 52 27 32 24 42 24 12 25 12
28 08 78 58 38 29 29 20 21 27 18 78 20 08 21 25 24 58 98 26 23 24 27 18 28 68 22 27 24 58 38 20 25 24 26 24 08 88 26 27 25 23 24 20 27 48 88 48 24 24 48 25
81 87 83 83 89 21 31 51 85 71 89 86 21 80 82 01 41 71 31 41 01 71 61 83 31 86 85 80 86 31 51 71 01 11 01 71 88 81 11 61 88 84 87 87 71 51
10 40 30 20 13 30 17 70 18 50 14 70 20 12 50 80 60 12 17 12 14 16 30 12 16 18 16 80 20 13 12 16 60 11 10 16 13 90 11 19 70 90 90 40 12 20 50 30 12 12
08 78 05 58 38 02 07 06 04 18 07 07 78 08 05 58 07 98 01 01 18 28 68 58 05 38 02 01 01 08 88 09 06 06 02 05 48 88 04 48 06 48
87 83 37 83 89 97 07 27 17 47 67 85 07 37 07 89 86 57 80 07 82 17 67 97 27 83 86 85 27 80 86 97 47 67 77 88 81 37 77 57 27 27 88 84 87 87
78 73 58 38 75 72 73 70 75 73 18 71 70 78 08 74 58 76 98 71 73 73 71 18 28 68 72 58 38 74 71 77 71 08 88 77 73 70 79 73 48 88 48 73 48 71
83 73 83 89 53 13 73 73 85 43 89 93 86 43 43 80 63 82 43 23 73 73 83 33 86 85 80 53 86 43 33 13 43 93 13 33 88 81 93 53 73 23 73 88 84 87 73 63 87
37 35 38 97 30 07 30 27 31 17 47 67 35 07 37 07 36 57 34 32 07 39 36 34 17 67 31 97 30 27 33 31 27 38 33 31 35 36 39 97 47 67 77 33 39 35 37 77 35 57 27 35 27 34 87 30 32 87
73 83 75 53 72 13 73 70 75 73 71 43 70 78 93 74 43 43 76 63 43 23 71 73 73 71 83 33 72 53 43 33 13 43 93 74 71 77 71 13 33 93 53 77 73 70 79 23 73 73 63 71
35 05 38 75 30 30 31 75 35 85 37 36 25 34 32 45 05 39 36 34 31 30 33 31 85 45 05 55 38 25 33 31 35 36 39 45 33 39 35 37 35 55 25 35 55 05 34 45 30 32 25
54 58 53 04 56 51 50 14 57 74 34 24 50 58 64 34 24 44 14 44 44 64 52 24 58 55 53 59 94 24 51 64 74 52 24 53 55 57 64 54 55 56 24 52 34 84 50 04 64 24 44 24 51
40 30 20 30 70 47 50 43 70 20 43 43 45 50 80 43 60 41 44 46 44 44 41 49 30 45 80 20 42 43 43 45 47 60 10 90 70 90 90 46 40 42 20 48 45 50 46 48 30 44 42 48
05 75 02 07 06 04 75 35 85 07 07 08 25 45 05 07 01 01 85 45 05 55 02 25 35 45 01 01 08 35 35 55 09 06 06 25 02 35 55 05 45 04 06 25
58 38 53 56 51 18 50 78 08 57 50 58 98 18 28 68 52 58 55 53 38 59 51 52 08 88 53 55 57 54 55 56 52 48 88 50 48 48 51
83 89 53 13 73 73 85 43 89 93 86 43 43 80 63 82 43 23 73 73 83 33 86 85 80 53 86 43 33 13 43 93 13 33 88 81 93 53 73 23 73 88 84 87 73 63 87
38 30 30 31 35 18 37 78 36 08 34 32 58 39 98 36 34 31 30 18 33 31 28 68 58 38 33 31 35 36 39 33 39 08 88 35 37 35 35 34 48 88 48 30 32 48
89 29 29 85 89 86 80 39 82 49 83 69 86 85 80 86 59 69 39 39 88 81 19 09 79 69 88 84 87 87
97 92 92 07 27 17 47 67 07 37 07 93 57 07 98 17 67 97 27 92 27 94 93 97 47 67 77 90 93 37 77 57 92 27 90 90 27 87 87
75 72 73 70 75 73 35 85 71 70 78 25 74 45 05 76 71 73 73 71 85 72 45 05 55 25 35 74 45 71 77 71 35 77 73 35 55 70 79 25 35 55 05 73 45 73 71 25
53 13 73 56 73 51 50 43 93 57 43 43 50 58 63 43 23 73 73 83 33 52 58 55 53 59 43 33 13 51 43 93 52 13 33 93 53 73 55 57 54 23 55 56 52 73 50 73 63 51
30 20 30 31 70 35 50 37 70 36 20 34 32 50 80 39 36 60 34 31 30 33 31 80 38 20 33 31 35 36 39 60 10 33 39 90 35 37 35 70 90 90 40 35 20 34 50 30 32
02 92 92 07 72 06 62 04 07 07 62 08 62 12 32 05 07 82 01 12 12 01 12 92 52 22 72 05 62 02 42 12 52 01 01 08 09 92 62 06 06 62 02 12 42 05 52 04 06 32 42 12 12
29 29 20 21 27 89 20 21 25 24 39 26 23 24 49 27 69 28 22 27 24 20 25 59 24 26 69 39 24 39 19 09 26 27 79 69 25 23 24 20 27 24 24 25
92 92 72 62 93 62 62 12 32 98 82 12 12 97 12 92 52 22 72 62 02 94 42 12 93 97 52 90 93 92 62 90 90 62 02 12 42 52 32 42 12 12
29 20 21 27 89 20 21 25 24 39 26 23 24 49 27 69 28 22 27 24 20 25 59 24 26 69 39 24 39 19 09 26 27 79 69 25 23 24 20 27 24 24 25
92 72 62 93 62 62 12 32 98 82 12 12 97 12 92 52 22 72 62 02 94 42 12 93 97 52 90 93 92 62 90 90 62 02 12 42 52 32 42 12 12
20 21 30 27 70 50 70 20 21 25 24 50 80 26 60 23 24 30 27 28 22 27 24 80 20 25 24 26 24 60 10 90 70 26 27 90 90 25 40 23 24 20 27 50 30 24 24 25
07 06 27 17 04 47 67 07 37 07 08 57 05 07 01 17 67 97 01 27 27 05 02 97 47 01 01 67 77 08 37 77 57 09 27 06 06 02 05 27 04 87 06 87
72 62 73 70 75 73 71 70 78 62 62 12 74 32 76 82 12 71 12 73 73 12 71 92 52 22 72 62 02 42 12 74 52 71 77 71 77 73 70 92 62 79 62 02 12 42 52 73 73 32 42 71 12 12
21 27 31 51 71 20 21 25 24 26 01 23 41 71 24 31 41 01 27 71 61 31 28 22 27 24 20 25 24 31 51 26 24 71 01 11 01 71 81 11 26 27 25 23 61 24 20 27 24 24 71 25 51
13 73 17 73 18 14 43 93 12 43 43 63 43 12 23 17 12 73 14 16 73 12 16 18 83 33 16 53 43 33 13 12 43 93 16 11 10 16 13 33 11 19 93 53 73 23 12 73 73 63 12 12
30 31 70 35 50 37 70 36 20 34 32 50 80 39 36 60 34 31 30 33 31 80 38 20 33 31 35 36 39 60 10 33 39 90 35 37 35 70 90 90 40 35 20 34 50 30 32
06 04 56 07 07 36 08 86 05 07 76 26 36 01 46 16 01 16 16 86 05 86 02 26 36 16 01 01 16 08 09 26 06 06 46 02 56 05 04 46 06
62 67 62 62 12 32 63 82 64 60 12 12 67 64 12 61 69 92 68 52 22 72 62 02 42 12 64 69 52 60 67 92 62 69 64 62 02 61 12 42 52 64 63 32 42 12 12
27 17 47 67 07 37 07 20 21 25 57 24 07 26 23 17 24 67 97 27 28 22 27 24 20 25 24 26 97 24 47 67 77 37 77 57 26 27 25 23 24 20 27 87 24 24 87 25
73 70 75 73 71 43 70 78 93 74 43 43 76 63 43 23 71 73 73 71 83 33 72 53 43 33 13 43 93 74 71 77 71 13 33 93 53 77 73 70 79 23 73 73 63 71
31 35 51 71 37 36 21 34 32 39 36 01 34 41 71 31 41 30 01 71 61 33 31 38 33 31 35 51 36 39 71 01 11 01 71 33 39 81 11 35 37 35 35 61 34 30 32 71 51
17 47 67 18 07 14 37 07 12 57 07 12 17 12 67 14 16 97 12 27 16 18 16 27 13 12 97 47 16 11 10 16 67 77 13 11 19 37 77 57 27 12 27 87 87 12 12
70 75 73 50 71 70 78 20 74 50 80 76 60 71 73 73 30 71 72 80 20 74 71 60 10 77 71 90 77 73 70 79 90 90 40 20 73 50 73 30 71
04 07 14 07 08 74 34 24 05 07 64 01 34 24 44 14 44 44 64 01 24 05 02 94 24 64 74 24 01 01 08 09 06 06 64 54 02 24 05 34 84 04 64 06 24 44 24
47 67 07 43 37 07 57 43 43 45 07 43 41 17 44 46 67 44 44 41 49 97 27 27 45 42 43 43 97 45 47 67 77 37 77 57 27 46 40 42 27 48 45 46 48 87 44 42 48 87
75 73 35 85 71 70 78 25 74 45 05 76 71 73 73 71 85 72 45 05 55 25 35 74 45 71 77 71 35 77 73 35 55 70 79 25 35 55 05 73 45 73 71 25
56 51 50 36 86 57 50 58 76 26 36 46 16 16 16 86 52 58 55 53 86 59 51 26 36 52 16 16 53 55 57 26 06 06 46 54 55 56 52 50 46 06 51
67 07 37 07 62 62 57 07 63 64 60 17 67 64 97 27 61 69 68 27 62 64 69 97 47 60 67 77 37 77 57 62 27 69 64 62 61 27 64 87 63 87
73 71 43 70 78 93 74 43 43 76 63 43 23 71 73 73 71 83 33 72 53 43 33 13 43 93 74 71 77 71 13 33 93 53 77 73 70 79 23 73 73 63 71
35 85 37 36 25 34 32 45 05 39 36 34 31 30 33 31 85 45 05 55 38 25 33 31 35 36 39 45 33 39 35 37 35 55 25 35 55 05 34 45 30 32 25
51 50 71 21 57 50 58 01 41 71 31 41 01 71 61 31 52 58 55 53 59 31 51 52 71 01 11 01 71 81 11 53 55 57 54 55 56 61 52 50 71 51
18 14 78 08 12 58 98 12 17 12 14 16 12 16 18 16 28 68 58 38 13 12 16 11 10 16 13 08 88 11 19 12 48 88 48 48 12 12
85 89 86 25 45 05 80 82 83 86 85 45 80 05 55 86 25 35 45 88 81 35 35 55 25 35 55 05 88 84 45 87 87 25
50 70 20 57 50 58 80 60 30 52 58 80 55 53 20 59 51 52 60 10 90 53 55 57 70 90 90 54 40 55 56 20 52 50 30 51
07 37 07 08 57 05 07 01 17 67 97 01 27 27 05 02 97 47 01 01 67 77 08 37 77 57 09 27 06 06 02 05 27 04 87 06 87
71 70 78 21 74 76 01 41 71 73 31 41 73 01 71 61 31 72 31 51 74 71 01 11 01 77 71 81 11 77 73 70 79 61 73 73 71 51
14 12 74 34 24 64 12 34 17 12 24 44 14 44 44 16 64 12 16 18 16 24 94 24 13 12 64 74 24 16 11 10 16 13 11 19 64 54 12 24 34 84 04 64 24 44 24 12 12
43 93 43 43 45 63 43 23 41 44 46 73 44 44 41 49 73 83 33 45 53 42 43 33 13 43 93 45 47 13 33 93 53 73 46 40 23 42 73 48 45 46 48 73 63 44 42 48
37 07 36 57 34 32 07 39 36 34 17 67 31 97 30 27 33 31 27 38 33 31 35 36 39 97 47 67 77 33 39 35 37 77 35 57 27 35 27 34 87 30 32 87
70 78 20 74 50 80 76 60 71 73 73 30 71 72 80 20 74 71 60 10 77 71 90 77 73 70 79 90 90 40 20 73 50 73 30 71
07 08 57 05 07 01 17 67 97 01 27 27 05 02 97 47 01 01 67 77 08 37 77 57 09 27 06 06 02 05 27 04 87 06 87
78 08 74 58 76 98 71 73 73 71 18 28 68 72 58 38 74 71 77 71 08 88 77 73 70 79 73 48 88 48 73 48 71
89 86 80 39 82 49 83 69 86 85 80 86 59 69 39 39 88 81 19 09 79 69 88 84 87 87
93 43 43 63 98 43 23 73 97 73 83 33 92 53 94 43 33 13 43 93 97 13 33 90 93 53 73 92 90 90 23 73 73 63
36 86 34 32 76 39 26 36 34 46 31 16 30 16 33 31 16 86 38 86 33 31 35 26 36 39 16 16 33 39 35 37 35 26 06 06 46 35 56 34 46 30 06 32
62 62 12 32 63 82 64 60 12 12 67 64 12 61 69 92 68 52 22 72 62 02 42 12 64 69 52 60 67 92 62 69 64 62 02 61 12 42 52 64 63 32 42 12 12
20 21 25 24 50 80 26 60 23 24 30 27 28 22 27 24 80 20 25 24 26 24 60 10 90 70 26 27 90 90 25 40 23 24 20 27 50 30 24 24 25
08 05 58 07 98 01 01 18 28 68 58 05 38 02 01 01 08 88 09 06 06 02 05 48 88 04 48 06 48
86 80 76 82 26 36 46 16 16 83 16 86 85 80 86 26 36 16 16 88 81 26 06 06 46 56 88 84 46 87 06 87
62 12 32 63 82 64 60 12 12 67 64 12 61 69 92 68 52 22 72 62 02 42 12 64 69 52 60 67 92 62 69 64 62 02 61 12 42 52 64 63 32 42 12 12
21 25 24 26 01 23 41 71 24 31 41 01 27 71 61 31 28 22 27 24 20 25 24 31 51 26 24 71 01 11 01 71 81 11 26 27 25 23 61 24 20 27 24 24 71 25 51
12 32 82 12 17 12 14 16 12 16 18 16 92 52 22 72 62 02 42 13 12 52 16 11 10 16 13 11 19 92 62 62 02 12 42 52 32 42 12 12
25 24 45 05 26 23 24 27 28 85 22 27 24 45 05 55 20 25 24 35 26 45 24 35 35 55 26 27 25 23 35 55 24 20 05 27 45 24 24 25
57 50 58 07 17 67 97 27 52 27 58 55 53 59 51 97 52 47 67 77 53 37 77 55 57 27 54 55 56 52 27 50 87 87 51
74 34 24 76 64 34 71 24 44 73 14 44 44 64 73 71 72 24 94 24 64 74 24 71 77 71 77 73 70 79 64 54 24 73 34 84 04 64 73 24 44 24 71
43 43 45 63 43 23 41 44 46 73 44 44 41 49 73 83 33 45 53 42 43 33 13 43 93 45 47 13 33 93 53 73 46 40 23 42 73 48 45 46 48 73 63 44 42 48
34 32 24 39 64 36 34 24 44 31 14 44 44 64 30 33 31 24 38 94 24 33 31 35 64 36 39 74 24 33 39 35 37 35 64 54 35 24 34 84 04 64 30 32 24 44 24
43 45 63 43 23 41 44 46 73 44 44 41 49 73 83 33 45 53 42 43 33 13 43 93 45 47 13 33 93 53 73 46 40 23 42 73 48 45 46 48 73 63 44 42 48
32 39 82 36 12 34 12 31 30 12 33 31 92 52 22 72 38 62 02 42 33 31 35 12 36 39 52 33 39 35 37 35 92 62 62 02 35 12 42 52 34 30 32 42 12 12
24 26 64 23 34 24 44 14 44 44 64 27 28 22 27 24 20 25 94 24 26 64 74 24 26 27 64 25 54 23 24 20 27 34 84 04 64 24 44 24 25
45 05 43 41 44 46 44 44 41 49 85 45 05 55 25 42 43 35 43 45 47 35 35 55 46 25 40 35 55 42 05 48 45 46 48 44 42 48 25
50 58 80 60 30 52 58 80 55 53 20 59 51 52 60 10 90 53 55 57 70 90 90 54 40 55 56 20 52 50 30 51
05 07 01 01 85 45 05 55 02 25 35 45 01 01 08 35 35 55 09 06 06 25 02 35 55 05 45 04 06 25
58 98 18 28 68 52 58 55 53 38 59 51 52 08 88 53 55 57 54 55 56 52 48 88 50 48 48 51
80 82 60 30 83 86 85 80 86 20 60 10 90 88 81 70 90 90 40 20 88 84 50 87 30 87
07 01 17 67 97 01 27 27 05 02 97 47 01 01 67 77 08 37 77 57 09 27 06 06 02 05 27 04 87 06 87
76 26 36 71 46 73 16 73 71 16 16 86 72 86 26 36 74 71 16 16 77 71 77 73 70 26 79 06 06 46 56 73 46 73 06 71
63 64 43 60 23 67 73 64 73 61 83 33 69 68 53 62 43 33 13 64 43 69 93 60 67 13 33 93 53 73 62 69 64 62 23 61 73 64 73 63
39 36 34 31 49 30 33 31 69 38 59 33 31 35 36 69 39 33 39 19 35 37 35 09 79 69 35 34 30 32
98 97 18 92 28 68 58 38 94 93 97 90 08 88 93 92 90 90 48 88 48 48
82 12 12 12 83 92 86 85 52 22 72 80 86 62 02 42 12 52 88 81 92 62 62 02 12 42 52 88 84 87 32 42 87 12 12
26 36 23 24 46 16 27 16 16 28 86 22 27 24 86 20 25 24 26 36 24 16 16 26 27 06 06 46 25 23 56 24 20 27 46 06 24 24 25
64 60 34 24 44 67 14 44 44 64 61 69 68 24 62 94 24 64 69 74 24 60 67 62 69 64 62 54 61 24 34 84 04 64 63 24 44 24
43 23 41 44 46 73 44 44 41 49 73 83 33 45 53 42 43 33 13 43 93 45 47 13 33 93 53 73 46 40 23 42 73 48 45 46 48 73 63 44 42 48
36 34 46 31 16 30 16 33 31 16 86 38 86 33 31 35 26 36 39 16 16 33 39 35 37 35 26 06 06 46 35 56 34 46 30 06 32
60 67 64 30 61 69 68 80 62 20 64 69 60 10 67 90 70 62 90 69 90 64 62 40 61 20 50 64 30 63
01 41 71 31 41 01 71 61 31 05 02 31 51 71 01 11 01 71 08 81 11 09 06 06 02 61 05 04 06 71 51
12 17 12 14 16 12 16 18 16 92 52 22 72 62 02 42 13 12 52 16 11 10 16 13 11 19 92 62 62 02 12 42 52 32 42 12 12
23 24 73 73 27 83 33 28 22 27 24 53 20 25 24 43 33 13 26 43 93 24 13 33 93 53 73 26 27 25 23 24 20 27 73 73 63 24 24 25
34 24 44 31 14 44 44 64 30 33 31 24 38 94 24 33 31 35 64 36 39 74 24 33 39 35 37 35 64 54 35 24 34 84 04 64 30 32 24 44 24
41 71 44 46 31 44 44 41 49 01 71 61 31 45 42 43 31 51 43 45 47 71 01 11 01 71 81 11 46 40 61 42 48 45 46 48 44 42 48 71 51
17 12 67 14 16 97 12 27 16 18 16 27 13 12 97 47 16 11 10 16 67 77 13 11 19 37 77 57 27 12 27 87 87 12 12
71 73 31 41 73 01 71 61 31 72 31 51 74 71 01 11 01 77 71 81 11 77 73 70 79 61 73 73 71 51
12 14 16 12 16 18 16 92 52 22 72 62 02 42 13 12 52 16 11 10 16 13 11 19 92 62 62 02 12 42 52 32 42 12 12
24 14 44 44 64 27 28 22 27 24 20 25 94 24 26 64 74 24 26 27 64 25 54 23 24 20 27 34 84 04 64 24 44 24 25
44 14 44 44 41 64 49 24 45 94 42 24 43 64 43 74 45 24 47 64 46 54 40 24 42 34 48 84 45 04 46 64 48 24 44 42 24 48
46 44 44 41 16 49 16 16 86 45 86 42 43 26 43 36 45 47 16 16 26 06 06 46 40 56 42 48 45 46 48 06 44 42 48
67 64 97 27 61 69 68 27 62 64 69 97 47 60 67 77 37 77 57 62 27 69 64 62 61 27 64 87 63 87
73 73 71 83 33 72 53 43 33 13 43 93 74 71 77 71 13 33 93 53 77 73 70 79 23 73 73 63 71
31 41 30 01 71 61 33 31 38 33 31 35 51 36 39 71 01 11 01 71 33 39 81 11 35 37 35 35 61 34 30 32 71 51
14 44 16 64 12 16 18 16 24 94 24 13 12 64 74 24 16 11 10 16 13 11 19 64 54 12 24 34 84 04 64 24 44 24 12 12
44 41 64 49 24 45 94 42 24 43 64 43 74 45 24 47 64 46 54 40 24 42 34 48 84 45 04 46 64 48 24 44 42 24 48
44 64 49 24 45 94 42 24 43 64 43 74 45 24 47 64 46 54 40 24 42 34 48 84 45 04 46 64 48 24 44 42 24 48
41 49 01 71 61 31 45 42 43 31 51 43 45 47 71 01 11 01 71 81 11 46 40 61 42 48 45 46 48 44 42 48 71 51
16 12 16 18 16 86 86 13 12 26 36 16 11 10 16 13 11 19 26 06 06 46 56 12 46 06 12 12
64 61 69 68 24 62 94 24 64 69 74 24 60 67 62 69 64 62 54 61 24 34 84 04 64 63 24 44 24
49 69 45 59 42 43 43 69 39 45 47 39 19 09 79 69 46 40 42 48 45 46 48 44 42 48
97 27 92 27 94 93 97 47 67 77 90 93 37 77 57 92 27 90 90 27 87 87
73 71 83 33 72 53 43 33 13 43 93 74 71 77 71 13 33 93 53 77 73 70 79 23 73 73 63 71
30 33 31 80 38 20 33 31 35 36 39 60 10 33 39 90 35 37 35 70 90 90 40 35 20 34 50 30 32
01 71 61 31 05 02 31 51 71 01 11 01 71 08 81 11 09 06 06 02 61 05 04 06 71 51
12 16 18 16 92 52 22 72 62 02 42 13 12 52 16 11 10 16 13 11 19 92 62 62 02 12 42 52 32 42 12 12
27 28 22 27 24 20 25 24 26 97 24 47 67 77 37 77 57 26 27 25 23 24 20 27 87 24 24 87 25
71 61 31 72 31 51 74 71 01 11 01 77 71 81 11 77 73 70 79 61 73 73 71 51
16 18 16 86 86 13 12 26 36 16 11 10 16 13 11 19 26 06 06 46 56 12 46 06 12 12
61 31 69 68 62 31 51 64 69 71 60 01 11 01 67 71 81 11 62 69 64 62 61 64 63 71 51
18 16 28 68 58 38 13 12 16 11 10 16 13 08 88 11 19 12 48 88 48 48 12 12
83 86 85 80 53 86 43 33 13 43 93 13 33 88 81 93 53 73 23 73 88 84 87 73 63 87
33 53 38 43 33 31 13 35 43 36 93 39 13 33 39 93 35 53 37 73 35 23 35 73 34 73 30 63 32
31 38 33 31 35 51 36 39 71 01 11 01 71 33 39 81 11 35 37 35 35 61 34 30 32 71 51
16 86 86 13 12 26 36 16 11 10 16 13 11 19 26 06 06 46 56 12 46 06 12 12
69 68 62 59 64 69 39 60 67 39 19 09 62 79 69 64 62 61 64 63
92 52 22 72 62 02 94 42 12 93 97 52 90 93 92 62 90 90 62 02 12 42 52 32 42 12 12
28 68 22 27 24 58 38 20 25 24 26 24 08 88 26 27 25 23 24 20 27 48 88 48 24 24 48 25
86 85 80 86 26 36 16 16 88 81 26 06 06 46 56 88 84 46 87 06 87
68 58 38 62 64 69 60 67 08 88 62 69 64 62 61 48 88 64 48 63 48
85 45 80 05 55 86 25 35 45 88 81 35 35 55 25 35 55 05 88 84 45 87 87 25
52 72 58 55 53 62 02 59 42 51 12 52 53 55 57 92 62 62 54 02 55 56 12 42 52 50 32 42 12 51 12
22 72 24 62 20 02 25 42 24 12 26 52 24 92 26 62 27 62 25 02 23 12 24 42 20 52 27 32 24 42 24 12 25 12
27 24 20 25 24 26 97 24 47 67 77 37 77 57 26 27 25 23 24 20 27 87 24 24 87 25
72 62 02 42 12 74 52 71 77 71 77 73 70 92 62 79 62 02 12 42 52 73 73 32 42 71 12 12
24 20 25 94 24 26 64 74 24 26 27 64 25 54 23 24 20 27 34 84 04 64 24 44 24 25
45 05 55 25 42 43 35 43 45 47 35 35 55 46 25 40 35 55 42 05 48 45 46 48 44 42 48 25
58 55 53 38 59 51 52 08 88 53 55 57 54 55 56 52 48 88 50 48 48 51
80 86 20 60 10 90 88 81 70 90 90 40 20 88 84 50 87 30 87
05 02 25 35 45 01 01 08 35 35 55 09 06 06 25 02 35 55 05 45 04 06 25
55 25 59 35 51 45 52 35 53 35 55 57 25 54 35 55 56 05 52 45 50 25 51
53 59 43 33 13 51 43 93 52 13 33 93 53 73 55 57 54 23 55 56 52 73 50 73 63 51
38 33 31 35 36 39 33 39 08 88 35 37 35 35 34 48 88 48 30 32 48
86 26 36 16 16 88 81 26 06 06 46 56 88 84 46 87 06 87
62 02 42 12 64 69 52 60 67 92 62 69 64 62 02 61 12 42 52 64 63 32 42 12 12
20 25 24 26 24 60 10 90 70 26 27 90 90 25 40 23 24 20 27 50 30 24 24 25
02 42 12 52 01 01 08 09 92 62 06 06 62 02 12 42 05 52 04 06 32 42 12 12
25 24 35 26 45 24 35 35 55 26 27 25 23 35 55 24 20 05 27 45 24 24 25
59 51 69 39 52 39 19 53 55 57 09 79 69 54 55 56 52 50 51
94 24 64 93 97 74 24 90 93 92 90 90 64 54 24 34 84 04 64 24 44 24
42 43 12 43 45 52 47 92 62 46 62 40 02 12 42 52 48 45 46 48 32 44 42 48 12 12
24 26 64 74 24 26 27 64 25 54 23 24 20 27 34 84 04 64 24 44 24 25
43 13 43 93 45 47 13 33 93 53 73 46 40 23 42 73 48 45 46 48 73 63 44 42 48
33 13 35 43 36 93 39 13 33 39 93 35 53 37 73 35 23 35 73 34 73 30 63 32
31 35 51 36 39 71 01 11 01 71 33 39 81 11 35 37 35 35 61 34 30 32 71 51
13 12 43 93 16 11 10 16 13 33 11 19 93 53 73 23 12 73 73 63 12 12
35 36 39 45 33 39 35 37 35 55 25 35 55 05 34 45 30 32 25
51 52 71 01 11 01 71 81 11 53 55 57 54 55 56 61 52 50 71 51
12 52 16 11 10 16 13 11 19 92 62 62 02 12 42 52 32 42 12 12
26 36 24 16 16 26 27 06 06 46 25 23 56 24 20 27 46 06 24 24 25
64 69 74 24 60 67 62 69 64 62 54 61 24 34 84 04 64 63 24 44 24
43 93 45 47 13 33 93 53 73 46 40 23 42 73 48 45 46 48 73 63 44 42 48
36 39 16 16 33 39 35 37 35 26 06 06 46 35 56 34 46 30 06 32
69 39 60 67 39 19 09 62 79 69 64 62 61 64 63
93 97 13 33 90 93 53 73 92 90 90 23 73 73 63
39 33 39 19 35 37 35 09 79 69 35 34 30 32
97 47 67 77 90 93 37 77 57 92 27 90 90 27 87 87
74 24 71 77 71 77 73 70 79 64 54 24 73 34 84 04 64 73 24 44 24 71
45 47 35 35 55 46 25 40 35 55 42 05 48 45 46 48 44 42 48 25
52 53 55 57 92 62 62 54 02 55 56 12 42 52 50 32 42 12 51 12
24 26 27 64 25 54 23 24 20 27 34 84 04 64 24 44 24 25
47 67 77 37 77 57 27 46 40 42 27 48 45 46 48 87 44 42 48 87
71 01 11 01 77 71 81 11 77 73 70 79 61 73 73 71 51
16 11 10 16 13 11 19 26 06 06 46 56 12 46 06 12 12
60 10 67 90 70 62 90 69 90 64 62 40 61 20 50 64 30 63
01 01 71 08 81 11 09 06 06 02 61 05 04 06 71 51
11 01 16 71 13 81 11 19 61 12 71 12 51 12
10 16 13 90 11 19 70 90 90 40 12 20 50 30 12 12
01 71 08 81 11 09 06 06 02 61 05 04 06 71 51
16 13 11 19 26 06 06 46 56 12 46 06 12 12
67 37 77 57 62 27 69 64 62 61 27 64 87 63 87
77 37 77 73 57 70 27 79 27 73 87 73 87 71
71 81 11 77 73 70 79 61 73 73 71 51
13 11 19 93 53 73 23 12 73 73 63 12 12
33 93 35 53 37 73 35 23 35 73 34 73 30 63 32
39 19 35 37 35 09 79 69 35 34 30 32
90 93 70 92 90 90 40 20 50 30
08 09 06 06 02 05 48 88 04 48 06 48
88 48 88 84 48 87 48 87
81 61 88 84 87 87 71 51
11 61 12 71 12 51 12
19 09 79 69 12 12 12
93 53 73 92 90 90 23 73 73 63
35 37 35 55 25 35 55 05 34 45 30 32 25
53 73 55 57 54 23 55 56 52 73 50 73 63 51
37 35 57 27 35 27 34 87 30 32 87
77 57 70 27 79 27 73 87 73 87 71
73 70 79 23 73 73 63 71
35 25 35 55 05 34 45 30 32 25
55 25 54 35 55 56 05 52 45 50 25 51
57 27 54 55 56 52 27 50 87 87 51
70 79 90 90 40 20 73 50 73 30 71
09 79 06 69 06 02 05 04 06
92 62 90 90 62 02 12 42 52 32 42 12 12
26 27 06 06 46 25 23 56 24 20 27 46 06 24 24 25
62 69 64 62 02 61 12 42 52 64 63 32 42 12 12
27 25 23 24 20 27 87 24 24 87 25
79 69 73 73 71
90 90 40 20 50 30
06 06 46 02 56 05 04 46 06
69 64 62 61 64 63
90 40 20 50 30
06 46 02 56 05 04 46 06
64 62 54 61 24 34 84 04 64 63 24 44 24
46 40 56 42 48 45 46 48 06 44 42 48
62 02 61 12 42 52 64 63 32 42 12 12
25 23 35 55 24 20 05 27 45 24 24 25
54 55 56 24 52 34 84 50 04 64 24 44 24 51
40 42 20 48 45 50 46 48 30 44 42 48
02 12 42 05 52 04 06 32 42 12 12
23 24 20 27 73 73 63 24 24 25
35 05 34 45 30 32 25
55 05 52 45 50 25 51
56 52 50 46 06 51
61 64 63 71 51
12 42 52 32 42 12 12
24 20 27 34 84 04 64 24 44 24 25
42 52 48 45 46 48 32 44 42 48 12 12
20 27 50 30 24 24 25
05 45 04 06 25
52 50 32 42 12 51 12
27 87 24 24 87 25
73 73 63 71
34 84 04 64 30 32 24 44 24
48 45 46 48 44 42 48
88 48 87 48 87
84 04 64 87 24 44 24 87
45 46 48 44 42 48 25
50 30 51
04 64 06 24 44 24
46 48 06 44 42 48
64 63 24 44 24
48 44 42 48
87 87
73 63 71
30 32
32 42 12 12
24 24 25
44 24 48
42 48 12 12
24 25
71 51
12 12
<------------Next-300-Signals------------>
25 23 25 25 21 27 45 85 23 22 29 22 29 22 27 29 27 95 55 35 21 45 20 05 55 55 20 22 22 21 22 29 85 27 22 29 25 35 23 35 27 75 20 15 95 22 25 15 85 24 28 23 21 15 65 20 05 26 65 26 05
56 52 50 53 46 51 16 36 86 55 58 16 59 96 52 55 55 50 51 59 58 53 51 46 16 59 53 56 56 52 16 16 50 16 58 58 86 26 57 76 26
64 74 34 04 64 44 14 62 69 84 34 04 44 62 94 61 34 94 94 62 14 34 04 74 74 94 69 62 61 67 24 69 74 44 44 69 65 04 04 64 65 61 63 14
49 45 40 46 44 41 43 69 43 47 44 48 29 29 29 89 09 89 99 19 49 40 19 49 99 43 59 43 45 43 42 89 29 29 59 48 19 19 46 69 09 59 43 39 79 69 44 44 47 79 69 09 43 89 48 43 47
92 32 52 02 72 62 98 62 22 98 72 22 92 22 72 93 92 95 99 91 94 90 94 99 94 96 62 52 42 90 02 22 22 12 22 91 82 72 22 92 93 02 93 32 94 98 62 91 95 72 22 52 90 32 92 12 97 93 91 97 12 93 32 82
23 25 25 21 27 73 53 33 33 43 33 23 03 43 22 29 22 29 22 27 29 93 27 13 73 43 21 43 20 03 43 20 22 22 21 22 29 27 22 29 25 93 33 23 93 53 27 20 53 33 22 25 24 43 03 33 28 23 21 93 33 43 73 20 93 43 26 26 63 83 33 03
32 52 02 72 37 33 33 34 33 38 62 36 31 34 62 22 72 22 92 22 72 37 92 34 31 35 62 34 52 37 37 42 02 22 22 12 22 82 72 22 92 33 35 02 37 35 32 62 33 37 72 22 52 39 33 32 92 31 12 33 31 37 31 12 37 32 82 38 33 30 31
25 25 21 27 45 85 23 22 29 22 29 22 27 29 27 95 55 35 21 45 20 05 55 55 20 22 22 21 22 29 85 27 22 29 25 35 23 35 27 75 20 15 95 22 25 15 85 24 28 23 21 15 65 20 05 26 65 26 05
52 50 02 72 53 51 62 62 22 72 22 92 22 72 92 55 58 59 62 52 55 55 50 42 02 22 22 12 22 51 82 72 22 92 59 58 02 53 32 51 62 59 53 72 22 56 56 52 32 92 12 50 58 12 58 32 57 82
25 21 27 45 85 23 22 29 22 29 22 27 29 27 95 55 35 21 45 20 05 55 55 20 22 22 21 22 29 85 27 22 29 25 35 23 35 27 75 20 15 95 22 25 15 85 24 28 23 21 15 65 20 05 26 65 26 05
50 53 40 51 80 70 80 00 70 10 70 55 58 90 70 40 59 52 20 70 55 55 50 20 90 51 10 59 58 80 53 51 80 00 20 59 53 56 56 52 90 50 58 80 20 58 70 57 30 00 70
02 72 04 62 03 04 62 22 00 08 72 22 92 22 72 92 01 07 09 07 01 07 62 52 03 05 04 42 01 02 22 22 12 22 08 82 72 22 92 02 32 00 01 62 09 72 22 52 03 32 92 12 09 04 12 05 04 32 82 00 03 05
21 81 27 41 51 23 31 22 29 22 29 22 27 29 27 01 91 01 61 31 21 20 20 01 22 22 21 22 29 91 51 11 81 27 22 29 25 23 81 27 51 11 01 20 91 22 25 61 24 28 23 31 21 31 91 11 71 31 20 26 61 26 31
18 17 14 38 16 98 18 48 98 08 78 10 58 19 16 13 19 14 18 12 18 11 17 78 10 08 58 48 19 11 19 98 16 15 15 78 88 28 12 16 16 11 15 16 58 12 58 48 18 38 14
81 41 85 51 80 31 84 86 80 87 89 01 89 91 01 61 31 21 01 89 21 91 85 51 11 81 82 80 81 51 11 80 01 91 61 88 85 87 31 21 31 91 11 71 80 31 89 86 61 82 83 31
17 27 37 14 16 18 47 87 27 37 27 10 07 19 07 77 16 13 07 77 19 14 37 77 37 18 12 18 11 17 10 27 37 19 27 11 19 16 15 37 15 67 87 77 12 16 97 47 16 11 15 97 16 37 12 37 57 18 14 47
72 73 74 62 70 62 22 72 22 92 22 72 78 92 70 70 77 70 77 73 62 52 77 70 74 42 02 22 22 12 22 78 82 72 22 92 02 74 32 75 62 72 22 78 52 32 77 79 92 12 74 79 71 73 12 70 32 76 82 70
27 37 23 47 22 29 87 22 29 22 27 29 37 27 07 07 77 07 77 21 20 37 77 37 20 22 22 21 22 29 17 27 22 29 25 23 37 27 20 37 22 25 67 24 28 87 77 23 21 97 47 97 37 20 37 26 57 26 47
73 74 53 33 33 43 33 23 03 43 70 72 72 93 78 70 70 77 70 13 77 73 43 43 03 77 70 43 74 78 72 93 33 23 74 93 53 75 53 33 72 78 43 03 33 77 79 23 74 79 93 33 71 43 73 93 70 43 76 63 83 33 03 70
37 33 33 34 33 38 36 31 34 47 87 27 37 27 07 07 77 34 07 77 31 35 34 37 77 37 17 27 33 35 37 35 32 27 33 37 67 39 33 32 87 77 31 97 47 33 31 97 37 31 37 32 57 38 33 30 31 47
74 34 04 64 44 14 84 34 70 04 44 72 72 78 70 70 94 77 70 34 77 73 94 94 14 34 77 70 04 74 78 72 74 75 94 72 78 24 77 79 74 44 44 79 71 04 73 70 04 64 76 14 70
45 40 46 44 41 43 85 43 47 44 48 95 55 49 40 49 43 35 43 45 05 55 55 43 42 85 25 35 48 35 75 46 15 95 25 15 85 43 44 44 47 15 65 43 05 48 43 65 47 05
53 33 43 33 51 23 03 43 93 55 58 13 73 43 59 43 52 03 55 55 50 43 51 59 93 33 58 23 93 53 51 59 53 33 56 56 52 43 03 33 23 93 33 50 58 43 73 58 93 43 57 63 83 33 03
33 34 43 33 38 23 36 03 31 43 34 93 37 13 34 73 31 43 35 43 34 03 37 43 37 93 33 35 23 37 93 35 53 32 53 33 37 43 39 03 33 32 23 31 93 33 31 43 37 73 31 93 37 43 32 63 38 83 33 30 03 31
33 43 33 38 23 36 03 31 43 34 93 37 13 34 73 31 43 35 43 34 03 37 43 37 93 33 35 23 37 93 35 53 32 53 33 37 43 39 03 33 32 23 31 93 33 31 43 37 73 31 93 37 43 32 63 38 83 33 30 03 31
34 04 64 44 14 33 38 36 31 84 34 04 44 37 94 34 31 94 94 35 14 34 37 04 37 74 33 35 37 74 35 32 94 33 37 24 39 33 32 31 74 44 44 33 31 04 37 31 37 04 64 32 38 33 30 31 14
40 46 44 41 43 80 43 47 70 44 48 80 00 70 10 70 49 90 70 40 49 43 43 45 20 70 50 43 42 20 90 10 80 48 46 80 00 20 43 90 44 44 47 50 80 43 20 70 48 43 30 00 47 70
04 64 44 14 03 84 34 04 44 00 08 01 07 09 94 07 01 34 07 94 94 14 34 03 05 04 74 01 02 08 02 74 94 00 01 09 24 03 74 44 44 09 04 05 04 64 00 03 14 05
46 44 41 43 16 36 43 47 44 48 86 49 16 40 49 43 96 43 45 43 42 48 46 16 56 56 43 16 44 44 47 16 16 43 48 86 43 26 76 26 47
64 14 62 69 84 34 04 44 62 94 61 34 94 94 62 14 34 04 74 74 94 69 62 61 67 24 69 74 44 44 69 65 04 04 64 65 61 63 14
44 14 43 84 43 34 47 04 44 48 94 49 34 40 94 49 94 43 14 43 34 45 04 43 74 42 74 48 94 46 24 43 74 44 44 47 04 43 04 48 64 43 14 47
41 43 51 31 43 47 44 48 01 91 49 01 61 40 31 49 43 21 43 45 43 42 01 21 91 51 11 81 48 81 51 11 46 01 91 61 43 31 21 44 44 47 31 91 11 71 43 31 48 43 61 31 47
14 16 18 84 34 04 44 10 19 94 16 13 34 19 94 94 14 34 04 74 18 12 18 11 17 10 74 19 11 19 94 16 15 15 24 12 16 74 44 44 16 11 15 16 04 12 04 64 18 14
43 23 03 43 47 44 48 93 49 13 40 73 49 43 43 45 03 43 42 93 33 23 48 93 53 46 53 33 43 03 33 23 44 44 47 93 33 43 73 93 48 43 63 83 33 03 47
33 23 36 03 31 43 34 93 37 13 34 73 31 43 35 43 34 03 37 43 37 93 33 35 23 37 93 35 53 32 53 33 37 43 39 03 33 32 23 31 93 33 31 43 37 73 31 93 37 43 32 63 38 83 33 30 03 31
38 36 98 31 18 34 48 98 08 37 78 58 34 31 35 34 37 37 18 18 78 08 33 35 58 37 48 35 32 98 33 37 78 88 39 33 32 28 31 33 31 58 37 31 58 37 48 32 18 38 33 30 31
85 80 84 86 80 87 89 95 55 89 35 45 05 55 55 89 85 81 82 25 35 80 81 35 75 80 15 95 25 15 88 85 87 15 65 80 05 89 86 65 82 83 05
51 31 01 55 58 91 01 61 31 59 21 52 55 55 50 01 21 91 51 11 81 59 58 81 53 51 11 01 91 59 53 56 61 56 52 31 21 31 91 11 50 71 58 31 58 57 61 31
16 36 18 86 10 19 16 13 19 96 14 18 12 18 11 17 10 19 11 19 46 16 15 56 15 56 12 16 16 11 15 16 12 86 26 76 18 26 14
62 69 62 22 72 22 92 22 72 92 61 62 52 42 02 22 22 12 22 82 72 22 92 02 32 69 62 72 22 61 67 52 32 92 12 69 69 65 12 64 32 65 61 82 63
23 03 43 22 29 22 29 22 27 29 93 27 13 73 43 21 43 20 03 43 20 22 22 21 22 29 27 22 29 25 93 33 23 93 53 27 20 53 33 22 25 24 43 03 33 28 23 21 93 33 43 73 20 93 43 26 26 63 83 33 03
36 31 34 86 37 16 34 31 35 96 34 37 37 33 35 37 35 32 46 16 33 37 56 56 39 33 32 31 16 33 31 16 16 37 31 37 86 32 26 76 26 38 33 30 31
69 62 29 29 29 89 09 89 99 19 49 61 19 49 99 59 62 89 29 29 59 19 19 69 62 09 59 61 67 39 79 69 79 69 09 65 89 64 65 61 63
98 18 48 98 08 92 93 78 92 95 58 99 91 94 90 94 99 94 96 18 90 91 18 78 08 92 93 58 48 93 94 98 91 95 78 88 90 28 92 97 93 91 97 58 58 93 48 18 38
80 84 70 86 80 00 87 89 70 10 70 89 90 70 40 20 70 50 20 89 90 85 81 10 82 80 81 80 00 20 88 85 90 87 50 80 20 89 70 86 82 83 30 00 70
03 43 04 00 08 93 01 07 09 07 01 13 07 73 43 43 03 05 04 43 01 02 08 93 33 02 23 93 53 00 01 09 53 33 43 03 33 23 93 33 09 04 43 73 05 93 04 43 63 83 33 00 03 05
31 34 37 01 91 01 61 34 31 35 21 34 37 37 01 21 91 51 11 81 33 35 37 81 35 32 51 11 01 91 33 37 61 39 33 32 31 21 33 31 91 11 71 37 31 37 32 61 38 33 30 31
18 48 98 08 78 10 58 19 16 13 19 14 18 12 18 11 17 78 10 08 58 48 19 11 19 98 16 15 15 78 88 28 12 16 16 11 15 16 58 12 58 48 18 38 14
84 34 04 44 86 80 87 89 89 94 34 94 94 14 34 04 74 89 85 81 82 80 74 81 94 80 88 85 24 87 74 44 44 80 04 89 04 86 64 82 83 14
43 47 44 48 93 49 13 40 73 49 43 43 45 03 43 42 93 33 23 48 93 53 46 53 33 43 03 33 23 44 44 47 93 33 43 73 93 48 43 63 83 33 03 47
34 04 44 37 94 34 31 94 94 35 14 34 37 04 37 74 33 35 37 74 35 32 94 33 37 24 39 33 32 31 74 44 44 33 31 04 37 31 37 04 64 32 38 33 30 31 14
47 44 48 87 27 37 27 07 49 07 77 40 07 77 49 43 43 45 37 77 43 37 42 17 27 37 48 27 46 37 67 43 87 77 97 44 44 47 97 43 37 37 48 43 57 47
70 80 00 72 72 78 70 10 70 90 77 70 40 77 73 20 77 70 50 74 20 90 78 10 72 80 74 75 80 00 20 72 78 90 77 79 74 79 50 71 80 73 20 70 76 30 00 70
04 00 08 01 07 09 94 07 01 34 07 94 94 14 34 03 05 04 74 01 02 08 02 74 94 00 01 09 24 03 74 44 44 09 04 05 04 64 00 03 14 05
44 94 49 34 40 94 49 94 43 14 43 34 45 04 43 74 42 74 48 94 46 24 43 74 44 44 47 04 43 04 48 64 43 14 47
48 98 08 78 58 49 40 49 43 43 45 43 42 18 18 78 08 58 48 46 98 78 88 43 28 44 44 47 58 43 58 48 43 18 38 47
86 80 87 89 89 16 96 89 85 81 82 80 81 46 80 16 56 56 88 85 87 16 16 16 80 89 86 26 76 82 26 83
62 72 22 92 22 72 92 61 62 52 42 02 22 22 12 22 82 72 22 92 02 32 69 62 72 22 61 67 52 32 92 12 69 69 65 12 64 32 65 61 82 63
22 72 22 29 92 22 27 72 29 92 27 62 21 52 20 42 20 02 22 22 21 12 22 29 82 27 72 22 29 92 25 02 23 32 27 62 20 72 22 25 52 24 32 28 92 23 12 21 12 20 32 26 82 26
29 22 29 22 27 29 89 27 09 89 99 19 49 19 49 99 59 21 20 20 89 22 22 21 22 29 27 22 29 25 59 23 19 27 19 69 20 09 59 22 25 24 39 28 79 23 21 69 79 69 09 20 89 26 26
98 08 92 93 78 92 95 58 99 91 94 90 94 99 94 96 18 90 91 18 78 08 92 93 58 48 93 94 98 91 95 78 88 90 28 92 97 93 91 97 58 58 93 48 18 38
80 87 89 70 10 70 89 90 70 40 20 70 50 20 89 90 85 81 10 82 80 81 80 00 20 88 85 90 87 50 80 20 89 70 86 82 83 30 00 70
00 70 01 10 07 70 09 90 07 70 01 40 07 20 03 70 05 50 04 20 01 90 02 10 08 80 02 80 00 01 20 09 90 03 50 09 80 04 20 05 70 04 30 00 03 70 05
08 78 01 07 09 58 07 01 07 03 05 04 01 18 02 18 78 08 58 02 48 98 00 01 09 78 88 03 28 09 58 04 05 58 04 48 18 38 00 03 05
87 27 37 89 27 07 89 07 77 07 77 37 77 37 89 85 17 81 82 27 80 37 81 27 80 37 67 88 85 87 77 97 47 97 80 37 89 37 86 57 82 83 47
72 92 22 72 78 92 70 70 77 70 77 73 62 52 77 70 74 42 02 22 22 12 22 78 82 72 22 92 02 74 32 75 62 72 22 78 52 32 77 79 92 12 74 79 71 73 12 70 32 76 82 70
22 92 22 27 72 29 92 27 62 21 52 20 42 20 02 22 22 21 12 22 29 82 27 72 22 29 92 25 02 23 32 27 62 20 72 22 25 52 24 32 28 92 23 12 21 12 20 32 26 82 26
29 22 27 29 89 27 09 89 99 19 49 19 49 99 59 21 20 20 89 22 22 21 22 29 27 22 29 25 59 23 19 27 19 69 20 09 59 22 25 24 39 28 79 23 21 69 79 69 09 20 89 26 26
92 72 93 92 95 99 91 94 90 94 99 94 96 62 52 42 90 02 22 22 12 22 91 82 72 22 92 93 02 93 32 94 98 62 91 95 72 22 52 90 32 92 12 97 93 91 97 12 93 32 82
22 72 29 92 27 62 21 52 20 42 20 02 22 22 21 12 22 29 82 27 72 22 29 92 25 02 23 32 27 62 20 72 22 25 52 24 32 28 92 23 12 21 12 20 32 26 82 26
27 29 37 27 07 07 77 07 77 21 20 37 77 37 20 22 22 21 22 29 17 27 22 29 25 23 37 27 20 37 22 25 67 24 28 87 77 23 21 97 47 97 37 20 37 26 57 26 47
72 78 92 70 70 77 70 77 73 62 52 77 70 74 42 02 22 22 12 22 78 82 72 22 92 02 74 32 75 62 72 22 78 52 32 77 79 92 12 74 79 71 73 12 70 32 76 82 70
29 89 27 09 89 99 19 49 19 49 99 59 21 20 20 89 22 22 21 22 29 27 22 29 25 59 23 19 27 19 69 20 09 59 22 25 24 39 28 79 23 21 69 79 69 09 20 89 26 26
93 92 95 99 91 94 90 13 73 94 99 94 43 96 43 03 43 90 91 92 93 33 23 93 53 94 98 91 95 53 33 43 90 03 33 92 23 97 93 33 91 97 43 73 93 43 63 83 33 03
37 27 07 07 77 34 07 77 31 35 34 37 77 37 17 27 33 35 37 35 32 27 33 37 67 39 33 32 87 77 31 97 47 33 31 97 37 31 37 32 57 38 33 30 31 47
78 70 70 58 77 70 77 73 77 70 74 18 18 78 08 72 58 74 48 75 98 72 78 88 28 77 79 74 79 71 58 73 58 70 48 76 18 38 70
89 09 89 99 19 49 19 49 99 59 89 29 85 81 82 29 59 80 81 19 19 69 80 09 59 88 85 39 87 79 69 79 69 09 80 89 86 82 83
92 95 99 91 94 90 94 99 94 96 62 52 42 90 02 22 22 12 22 91 82 72 22 92 93 02 93 32 94 98 62 91 95 72 22 52 90 32 92 12 97 93 91 97 12 93 32 82
27 07 07 77 07 77 21 20 37 77 37 20 22 22 21 22 29 17 27 22 29 25 23 37 27 20 37 22 25 67 24 28 87 77 23 21 97 47 97 37 20 37 26 57 26 47
70 10 70 90 77 70 40 77 73 20 77 70 50 74 20 90 78 10 72 80 74 75 80 00 20 72 78 90 77 79 74 79 50 71 80 73 20 70 76 30 00 70
01 07 09 91 07 01 61 07 31 21 03 05 04 01 02 21 91 51 11 81 08 02 81 51 11 00 01 09 91 61 03 31 21 31 91 11 09 71 04 31 05 04 61 00 03 31 05
10 70 19 90 70 16 13 40 19 14 20 70 50 20 18 90 12 18 11 17 10 80 19 11 19 80 00 16 20 15 15 90 12 16 16 11 15 50 16 80 12 20 70 18 30 00 14 70
07 09 07 77 01 07 77 03 37 77 05 04 37 01 02 17 08 27 02 37 27 00 01 09 37 67 03 87 77 97 47 09 97 04 37 05 37 04 57 00 03 47 05
70 90 77 70 40 77 73 20 77 70 50 74 20 90 78 10 72 80 74 75 80 00 20 72 78 90 77 79 74 79 50 71 80 73 20 70 76 30 00 70
09 89 99 19 49 07 01 07 19 49 99 59 03 05 04 01 89 02 29 08 29 59 02 19 19 69 00 01 09 59 39 03 79 69 79 69 09 04 05 89 04 00 03 05
95 99 91 94 90 94 99 94 35 96 45 05 55 55 90 91 85 92 25 93 35 93 35 75 94 98 91 15 95 25 15 85 90 92 97 93 91 15 97 65 05 93 65 05
55 35 59 45 52 05 55 55 50 85 51 25 59 35 58 35 53 75 51 15 59 95 53 25 56 15 56 85 52 15 50 65 58 05 58 65 57 05
58 59 52 55 55 50 18 18 51 78 08 59 58 48 53 51 98 59 53 56 56 78 88 52 28 50 58 58 48 57 18 38
89 19 49 19 49 99 59 89 29 85 81 82 29 59 80 81 19 19 69 80 09 59 88 85 39 87 79 69 79 69 09 80 89 86 82 83
99 19 94 49 90 19 94 49 99 94 59 96 89 90 29 91 29 92 59 93 19 93 19 94 69 98 09 91 59 95 39 90 79 92 69 97 79 93 69 91 09 97 89 93
91 94 90 01 61 31 94 99 94 96 21 01 90 21 91 51 11 81 92 93 81 93 51 11 94 98 01 91 95 61 90 92 31 21 97 93 31 91 11 97 71 31 93 61 31
19 49 16 13 19 49 99 59 14 18 89 12 29 18 11 17 10 29 59 19 11 19 69 16 09 15 59 15 39 79 12 16 69 79 16 69 11 15 09 16 12 89 18 14
94 90 34 94 99 94 96 14 34 04 74 90 91 92 93 74 93 94 98 91 95 24 90 92 97 74 44 44 93 91 97 04 93 04 64 14
49 40 19 49 99 43 59 43 45 43 42 89 29 29 59 48 19 19 46 69 09 59 43 39 79 69 44 44 47 79 69 09 43 89 48 43 47
90 70 40 94 99 94 96 20 70 50 20 90 91 10 92 93 80 93 94 98 80 00 20 91 95 90 92 97 93 91 50 97 80 20 93 70 30 00 70
07 01 07 77 03 37 77 05 04 37 01 02 17 08 27 02 37 27 00 01 09 37 67 03 87 77 97 47 09 97 04 37 05 37 04 57 00 03 47 05
77 07 77 73 37 77 70 37 74 17 78 27 72 37 74 27 75 37 72 67 78 87 77 79 97 74 47 79 97 71 37 73 37 70 57 76 47 70
70 40 77 73 20 77 70 50 74 20 90 78 10 72 80 74 75 80 00 20 72 78 90 77 79 74 79 50 71 80 73 20 70 76 30 00 70
01 61 07 31 21 03 05 04 01 02 21 91 51 11 81 08 02 81 51 11 00 01 09 91 61 03 31 21 31 91 11 09 71 04 31 05 04 61 00 03 31 05
16 13 19 96 14 18 12 18 11 17 10 19 11 19 46 16 15 56 15 56 12 16 16 11 15 16 12 86 26 76 18 26 14
61 31 62 21 01 21 91 51 11 81 81 51 11 69 01 62 91 61 67 31 21 69 31 69 91 11 71 65 31 64 65 61 63 31
13 73 19 43 14 43 03 43 18 12 18 11 17 10 93 33 23 19 93 53 11 19 16 15 53 33 15 43 03 33 23 12 16 93 33 16 11 15 16 43 73 12 93 43 18 63 83 33 03 14
34 31 94 94 35 14 34 37 04 37 74 33 35 37 74 35 32 94 33 37 24 39 33 32 31 74 44 44 33 31 04 37 31 37 04 64 32 38 33 30 31 14
40 49 43 43 45 20 70 50 43 42 20 90 10 80 48 46 80 00 20 43 90 44 44 47 50 80 43 20 70 48 43 30 00 47 70
07 03 37 77 05 04 37 01 02 17 08 27 02 37 27 00 01 09 37 67 03 87 77 97 47 09 97 04 37 05 37 04 57 00 03 47 05
77 37 77 70 37 74 17 78 27 72 37 74 27 75 37 72 67 78 87 77 79 97 74 47 79 97 71 37 73 37 70 57 76 47 70
73 43 43 03 77 70 43 74 78 72 93 33 23 74 93 53 75 53 33 72 78 43 03 33 77 79 23 74 79 93 33 71 43 73 93 70 43 76 63 83 33 03 70
31 35 21 34 37 37 01 21 91 51 11 81 33 35 37 81 35 32 51 11 01 91 33 37 61 39 33 32 31 21 33 31 91 11 71 37 31 37 32 61 38 33 30 31
19 49 99 59 14 18 89 12 29 18 11 17 10 29 59 19 11 19 69 16 09 15 59 15 39 79 12 16 69 79 16 69 11 15 09 16 12 89 18 14
94 99 94 96 14 34 04 74 90 91 92 93 74 93 94 98 91 95 24 90 92 97 74 44 44 93 91 97 04 93 04 64 14
49 43 59 43 45 43 42 89 29 29 59 48 19 19 46 69 09 59 43 39 79 69 44 44 47 79 69 09 43 89 48 43 47
99 59 96 89 90 29 91 29 92 59 93 19 93 19 94 69 98 09 91 59 95 39 90 79 92 69 97 79 93 69 91 09 97 89 93
94 96 14 34 04 74 90 91 92 93 74 93 94 98 91 95 24 90 92 97 74 44 44 93 91 97 04 93 04 64 14
43 43 45 03 43 42 93 33 23 48 93 53 46 53 33 43 03 33 23 44 44 47 93 33 43 73 93 48 43 63 83 33 03 47
35 34 45 37 05 55 55 37 85 25 33 35 37 35 32 75 15 95 33 37 25 15 85 39 33 32 31 33 31 15 65 37 31 05 37 32 65 38 33 30 31 05
59 52 55 55 50 89 29 51 29 59 58 19 53 51 19 69 09 59 53 56 56 52 39 79 69 79 69 50 09 58 58 89 57
96 90 91 92 93 93 94 46 98 16 91 95 56 56 90 92 16 97 93 16 91 97 16 93 86 26 76 26
62 52 42 02 22 22 12 22 82 72 22 92 02 32 69 62 72 22 61 67 52 32 92 12 69 69 65 12 64 32 65 61 82 63
21 20 20 01 22 22 21 22 29 91 51 11 81 27 22 29 25 23 81 27 51 11 01 20 91 22 25 61 24 28 23 31 21 31 91 11 71 31 20 26 61 26 31
14 34 04 74 18 12 18 11 17 10 74 19 11 19 94 16 15 15 24 12 16 74 44 44 16 11 15 16 04 12 04 64 18 14
43 45 03 43 42 93 33 23 48 93 53 46 53 33 43 03 33 23 44 44 47 93 33 43 73 93 48 43 63 83 33 03 47
34 37 04 37 74 33 35 37 74 35 32 94 33 37 24 39 33 32 31 74 44 44 33 31 04 37 31 37 04 64 32 38 33 30 31 14
45 05 55 55 43 42 85 25 35 48 35 75 46 15 95 25 15 85 43 44 44 47 15 65 43 05 48 43 65 47 05
52 55 55 50 42 02 22 22 12 22 51 82 72 22 92 59 58 02 53 32 51 62 59 53 72 22 56 56 52 32 92 12 50 58 12 58 32 57 82
20 70 50 20 90 22 22 21 22 29 10 27 22 29 25 80 23 27 80 00 20 22 25 24 90 28 23 21 50 80 20 70 26 26 30 00 70
03 05 04 43 01 02 08 93 33 02 23 93 53 00 01 09 53 33 43 03 33 23 93 33 09 04 43 73 05 93 04 43 63 83 33 00 03 05
37 37 17 27 33 35 37 35 32 27 33 37 67 39 33 32 87 77 31 97 47 33 31 97 37 31 37 32 57 38 33 30 31 47
77 37 74 17 78 27 72 37 74 27 75 37 72 67 78 87 77 79 97 74 47 79 97 71 37 73 37 70 57 76 47 70
70 50 74 20 90 78 10 72 80 74 75 80 00 20 72 78 90 77 79 74 79 50 71 80 73 20 70 76 30 00 70
05 55 04 01 02 85 08 25 35 02 35 75 00 01 09 15 95 25 15 85 03 15 09 65 04 05 04 65 00 03 05
55 50 85 51 25 59 35 58 35 53 75 51 15 59 95 53 25 56 15 56 85 52 15 50 65 58 05 58 65 57 05
55 85 51 25 59 35 58 35 53 75 51 15 59 95 53 25 56 15 56 85 52 15 50 65 58 05 58 65 57 05
50 20 90 51 10 59 58 80 53 51 80 00 20 59 53 56 56 52 90 50 58 80 20 58 70 57 30 00 70
04 74 01 02 08 02 74 94 00 01 09 24 03 74 44 44 09 04 05 04 64 00 03 14 05
43 42 93 33 23 48 93 53 46 53 33 43 03 33 23 44 44 47 93 33 43 73 93 48 43 63 83 33 03 47
37 17 27 33 35 37 35 32 27 33 37 67 39 33 32 87 77 31 97 47 33 31 97 37 31 37 32 57 38 33 30 31 47
74 78 72 74 75 94 72 78 24 77 79 74 44 44 79 71 04 73 70 04 64 76 14 70
42 02 22 22 12 22 82 72 22 92 02 48 32 46 62 72 22 52 43 32 92 12 44 44 47 43 12 48 43 32 82 47
20 90 22 22 21 22 29 10 27 22 29 25 80 23 27 80 00 20 22 25 24 90 28 23 21 50 80 20 70 26 26 30 00 70
01 02 21 91 51 11 81 08 02 81 51 11 00 01 09 91 61 03 31 21 31 91 11 09 71 04 31 05 04 61 00 03 31 05
18 12 18 11 17 78 10 08 58 48 19 11 19 98 16 15 15 78 88 28 12 16 16 11 15 16 58 12 58 48 18 38 14
89 29 85 81 82 29 59 80 81 19 19 69 80 09 59 88 85 39 87 79 69 79 69 09 80 89 86 82 83
90 91 10 92 93 80 93 94 98 80 00 20 91 95 90 92 97 93 91 50 97 80 20 93 70 30 00 70
02 22 12 22 08 82 72 22 92 02 32 00 01 62 09 72 22 52 03 32 92 12 09 04 12 05 04 32 82 00 03 05
22 21 12 22 29 82 27 72 22 29 92 25 02 23 32 27 62 20 72 22 25 52 24 32 28 92 23 12 21 12 20 32 26 82 26
22 12 22 29 82 27 72 22 29 92 25 02 23 32 27 62 20 72 22 25 52 24 32 28 92 23 12 21 12 20 32 26 82 26
21 22 29 91 51 11 81 27 22 29 25 23 81 27 51 11 01 20 91 22 25 61 24 28 23 31 21 31 91 11 71 31 20 26 61 26 31
12 18 11 17 10 82 72 22 92 02 19 32 11 19 16 62 15 72 22 15 52 32 92 12 16 16 11 15 16 12 32 18 82 14
22 82 27 72 22 29 92 25 02 23 32 27 62 20 72 22 25 52 24 32 28 92 23 12 21 12 20 32 26 82 26
29 27 22 29 25 59 23 19 27 19 69 20 09 59 22 25 24 39 28 79 23 21 69 79 69 09 20 89 26 26
91 51 11 81 92 93 81 93 51 11 94 98 01 91 95 61 90 92 31 21 97 93 31 91 11 97 71 31 93 61 31
18 11 17 78 10 08 58 48 19 11 19 98 16 15 15 78 88 28 12 16 16 11 15 16 58 12 58 48 18 38 14
85 81 82 25 35 80 81 35 75 80 15 95 25 15 88 85 87 15 65 80 05 89 86 65 82 83 05
51 81 59 58 81 53 51 11 01 91 59 53 56 61 56 52 31 21 31 91 11 50 71 58 31 58 57 61 31
11 81 10 81 19 51 11 19 01 16 91 15 61 15 31 12 21 16 31 16 91 11 15 71 16 31 12 61 18 31 14
17 10 27 37 19 27 11 19 16 15 37 15 67 87 77 12 16 97 47 16 11 15 97 16 37 12 37 57 18 14 47
78 08 72 58 74 48 75 98 72 78 88 28 77 79 74 79 71 58 73 58 70 48 76 18 38 70
81 82 80 81 51 11 80 01 91 61 88 85 87 31 21 31 91 11 71 80 31 89 86 61 82 83 31
10 80 19 11 19 80 00 16 20 15 15 90 12 16 16 11 15 50 16 80 12 20 70 18 30 00 14 70
08 58 02 48 98 00 01 09 78 88 03 28 09 58 04 05 58 04 48 18 38 00 03 05
82 72 22 92 80 02 81 32 80 62 72 22 88 85 52 32 87 92 12 80 12 89 86 32 82 83
27 22 29 25 23 37 27 20 37 22 25 67 24 28 87 77 23 21 97 47 97 37 20 37 26 57 26 47
72 92 02 74 32 75 62 72 22 78 52 32 77 79 92 12 74 79 71 73 12 70 32 76 82 70
22 92 25 02 23 32 27 62 20 72 22 25 52 24 32 28 92 23 12 21 12 20 32 26 82 26
29 25 59 23 19 27 19 69 20 09 59 22 25 24 39 28 79 23 21 69 79 69 09 20 89 26 26
92 93 02 93 32 94 98 62 91 95 72 22 52 90 32 92 12 97 93 91 97 12 93 32 82
25 35 23 35 27 75 20 15 95 22 25 15 85 24 28 23 21 15 65 20 05 26 65 26 05
59 58 19 53 51 19 69 09 59 53 56 56 52 39 79 69 79 69 50 09 58 58 89 57
93 23 93 53 94 98 91 95 53 33 43 90 03 33 92 23 97 93 33 91 97 43 73 93 43 63 83 33 03
33 23 37 93 35 53 32 53 33 37 43 39 03 33 32 23 31 93 33 31 43 37 73 31 93 37 43 32 63 38 83 33 30 03 31
35 37 35 32 75 15 95 33 37 25 15 85 39 33 32 31 33 31 15 65 37 31 05 37 32 65 38 33 30 31 05
58 48 53 51 98 59 53 56 56 78 88 52 28 50 58 58 48 57 18 38
80 81 80 00 20 88 85 90 87 50 80 20 89 70 86 82 83 30 00 70
02 32 00 01 62 09 72 22 52 03 32 92 12 09 04 12 05 04 32 82 00 03 05
23 93 53 27 20 53 33 22 25 24 43 03 33 28 23 21 93 33 43 73 20 93 43 26 26 63 83 33 03
37 35 32 27 33 37 67 39 33 32 87 77 31 97 47 33 31 97 37 31 37 32 57 38 33 30 31 47
74 75 94 72 78 24 77 79 74 44 44 79 71 04 73 70 04 64 76 14 70
48 46 98 78 88 43 28 44 44 47 58 43 58 48 43 18 38 47
81 51 11 80 01 91 61 88 85 87 31 21 31 91 11 71 80 31 89 86 61 82 83 31
19 11 19 69 16 09 15 59 15 39 79 12 16 69 79 16 69 11 15 09 16 12 89 18 14
93 53 94 98 91 95 53 33 43 90 03 33 92 23 97 93 33 91 97 43 73 93 43 63 83 33 03
35 32 75 15 95 33 37 25 15 85 39 33 32 31 33 31 15 65 37 31 05 37 32 65 38 33 30 31 05
53 51 59 53 33 56 56 52 43 03 33 23 93 33 50 58 43 73 58 93 43 57 63 83 33 03
32 62 33 37 72 22 52 39 33 32 92 31 12 33 31 37 31 12 37 32 82 38 33 30 31
27 20 37 22 25 67 24 28 87 77 23 21 97 47 97 37 20 37 26 57 26 47
75 15 95 72 25 15 78 85 77 79 74 79 15 71 65 73 05 70 65 76 70 05
51 01 91 59 53 56 61 56 52 31 21 31 91 11 50 71 58 31 58 57 61 31
11 01 16 91 15 61 15 31 12 21 16 31 16 91 11 15 71 16 31 12 61 18 31 14
19 69 16 09 15 59 15 39 79 12 16 69 79 16 69 11 15 09 16 12 89 18 14
94 98 91 95 24 90 92 97 74 44 44 93 91 97 04 93 04 64 14
46 16 56 56 43 16 44 44 47 16 16 43 48 86 43 26 76 26 47
69 62 09 59 61 67 39 79 69 79 69 09 65 89 64 65 61 63
98 91 95 78 88 90 28 92 97 93 91 97 58 58 93 48 18 38
80 20 88 85 90 87 50 80 20 89 70 86 82 83 30 00 70
00 20 09 90 03 50 09 80 04 20 05 70 04 30 00 03 70 05
01 09 91 61 03 31 21 31 91 11 09 71 04 31 05 04 61 00 03 31 05
16 15 56 15 56 12 16 16 11 15 16 12 86 26 76 18 26 14
62 72 22 61 67 52 32 92 12 69 69 65 12 64 32 65 61 82 63
20 22 25 24 90 28 23 21 50 80 20 70 26 26 30 00 70
09 59 39 03 79 69 79 69 09 04 05 89 04 00 03 05
91 95 61 90 92 31 21 97 93 31 91 11 97 71 31 93 61 31
15 95 25 15 85 12 16 16 11 15 16 65 12 05 65 18 14 05
59 53 56 56 52 39 79 69 79 69 50 09 58 58 89 57
95 25 15 85 90 92 97 93 91 15 97 65 05 93 65 05
53 56 56 52 43 03 33 23 93 33 50 58 43 73 58 93 43 57 63 83 33 03
33 43 39 03 33 32 23 31 93 33 31 43 37 73 31 93 37 43 32 63 38 83 33 30 03 31
37 67 39 33 32 87 77 31 97 47 33 31 97 37 31 37 32 57 38 33 30 31 47
72 78 52 32 77 79 92 12 74 79 71 73 12 70 32 76 82 70
22 52 24 32 28 92 23 12 21 12 20 32 26 82 26
25 15 85 24 28 23 21 15 65 20 05 26 65 26 05
56 56 52 16 16 50 16 58 58 86 26 57 76 26
61 67 31 21 69 31 69 91 11 71 65 31 64 65 61 63 31
15 85 12 16 16 11 15 16 65 12 05 65 18 14 05
56 52 16 16 50 16 58 58 86 26 57 76 26
67 87 77 69 97 47 69 97 65 37 37 64 65 57 61 63 47
78 28 77 79 74 79 71 58 73 58 70 48 76 18 38 70
88 28 87 58 80 58 89 48 86 18 82 38 83
85 87 15 65 80 05 89 86 65 82 83 05
52 32 92 12 50 58 12 58 32 57 82
24 28 23 21 74 44 44 04 20 04 64 26 26 14
43 03 33 23 44 44 47 93 33 43 73 93 48 43 63 83 33 03 47
39 33 32 79 31 69 79 33 31 69 09 37 31 89 37 32 38 33 30 31
90 92 97 93 91 50 97 80 20 93 70 30 00 70
03 23 93 33 09 04 43 73 05 93 04 43 63 83 33 00 03 05
33 23 31 93 33 31 43 37 73 31 93 37 43 32 63 38 83 33 30 03 31
32 92 31 12 33 31 37 31 12 37 32 82 38 33 30 31
28 23 21 58 20 58 48 26 18 26 38
87 97 47 97 80 37 89 37 86 57 82 83 47
77 97 74 47 79 97 71 37 73 37 70 57 76 47 70
79 69 74 79 69 09 71 73 89 70 76 70
92 12 97 93 91 97 12 93 32 82
23 21 93 33 43 73 20 93 43 26 26 63 83 33 03
31 21 33 31 91 11 71 37 31 37 32 61 38 33 30 31
12 16 16 11 15 16 12 32 18 82 14
21 31 91 11 71 31 20 26 61 26 31
16 16 11 15 16 12 86 26 76 18 26 14
69 79 69 09 65 89 64 65 61 63
97 47 93 91 97 37 93 37 57 47
74 44 79 71 04 73 70 04 64 76 14 70
44 47 04 43 04 48 64 43 14 47
44 04 43 04 48 64 43 14 47
47 97 43 37 37 48 43 57 47
79 69 09 71 73 89 70 76 70
93 91 97 43 73 93 43 63 83 33 03
33 43 37 73 31 93 37 43 32 63 38 83 33 30 03 31
31 91 11 71 37 31 37 32 61 38 33 30 31
16 11 15 16 12 86 26 76 18 26 14
69 09 65 89 64 65 61 63
91 97 71 31 93 61 31
11 71 16 31 12 61 18 31 14
15 16 65 12 05 65 18 14 05
50 58 80 20 58 70 57 30 00 70
09 04 05 89 04 00 03 05
97 37 93 37 57 47
71 73 31 70 76 61 31 70
16 12 86 26 76 18 26 14
65 05 64 65 61 63 05
58 58 48 57 18 38
80 20 89 70 86 82 83 30 00 70
04 05 04 64 00 03 14 05
43 73 93 48 43 63 83 33 03 47
37 31 37 32 57 38 33 30 31 47
73 93 70 43 76 63 83 33 03 70
31 37 32 61 38 33 30 31
12 32 18 82 14
20 70 26 26 30 00 70
05 04 65 00 03 05
58 48 57 18 38
89 86 82 83
93 43 63 83 33 03
37 32 57 38 33 30 31 47
70 76 30 00 70
04 64 00 03 14 05
48 43 18 38 47
86 26 76 82 26 83
64 65 61 63 14
43 63 83 33 03 47
32 82 38 33 30 31
26 76 26
65 61 63 05
57 47
76 26 70
61 63 31
18 38 14
82 83
63 83 33 03
38 33 30 31
83 03
33 03 31
30 31 70
00 70 05
03 05
<------------Next-300-Signals------------>
62 68 61 92 69 92 60 42 66 69 64 68 32 60 66 67 62 63 69 12 61 52 32 32 67 42 64 67 60 32 60 72 60 62 12 61 12 64 72 61 42 22 62 63 32 02 66 65 72 67 67 61 61 32 72 32
22 92 27 92 23 42 29 32 25 62 23 12 24 52 23 32 29 32 21 42 26 32 27 72 29 62 21 12 29 12 28 72 26 42 22 24 62 21 32 28 02 26 72 24 32 24 72 23 32 20
20 40 70 80 27 90 50 23 30 40 40 70 60 29 30 25 60 50 10 23 24 23 29 21 26 60 27 80 60 00 29 90 60 21 29 90 28 10 26 22 24 21 30 28 70 80 26 24 10 24 90 23 20
09 07 06 03 79 89 59 08 05 69 04 04 07 08 19 99 08 29 69 01 09 07 08 69 29 89 79 01 08 49 00 07 29 59 07 06 29 01 39 99 06 01 19 59 07 02 59 79 04 89 89 19 07 07
95 85 35 98 92 75 90 85 05 92 99 95 75 98 97 25 35 98 85 35 15 91 45 75 15 94 35 96 98 15 85 98 95 90 90 99 97 15 93 75 96 65 85 75 94 91 96 95 90
54 56 14 57 59 50 53 04 04 56 54 64 53 56 50 56 54 24 56 53 52 94 53 84 64 53 54 59 64 84 24 34 51 59 58 54 24 59 94 04 53 24 84
40 70 48 80 90 50 30 40 40 70 60 42 30 41 60 50 10 43 45 43 42 46 60 80 49 60 00 90 60 90 10 47 42 43 48 30 70 80 47 47 46 10 46 43 41 90 20
07 06 03 57 27 08 05 04 04 07 08 08 87 97 01 09 07 08 67 37 17 67 67 17 01 27 08 00 07 07 06 01 97 06 47 87 77 01 37 87 07 02 47 17 47 67 67 04 07 37 07 77 37
70 80 79 75 90 50 30 40 40 70 60 75 73 30 60 50 71 10 73 71 75 73 79 76 60 78 80 60 00 72 90 78 60 90 71 10 78 77 72 30 75 70 78 80 71 72 75 71 79 10 90 78 72 20 77 78 76
06 56 03 08 05 86 04 04 07 08 56 08 86 66 01 16 16 56 09 07 08 86 66 56 36 86 56 96 26 46 76 01 08 86 00 07 07 86 06 01 16 06 26 36 01 96 07 02 26 66 46 36 04 46 96 07 07 76
68 61 48 98 08 38 69 08 60 08 98 66 69 64 68 88 60 98 08 66 67 62 63 38 69 61 18 67 38 64 67 98 60 78 08 98 60 78 60 62 61 28 64 78 61 38 48 62 63 28 18 88 78 18 66 65 58 67 67 61 18 61 18 38 78 78
85 80 35 89 75 85 05 86 81 95 87 75 86 88 83 25 35 85 86 35 15 86 45 75 15 35 89 84 81 15 80 85 86 95 86 83 87 84 83 15 75 81 88 87 81 80 65 85 75 89 89 95 84 83 83
56 57 59 50 53 86 56 54 86 66 16 16 53 56 50 86 66 56 36 54 86 56 53 52 53 96 26 46 76 53 54 86 59 86 06 16 06 26 36 51 59 96 26 66 58 54 59 46 36 46 96 53 76
61 69 81 60 66 69 01 64 41 68 60 71 66 67 62 63 71 69 91 61 31 21 67 64 67 81 60 01 31 60 60 62 21 01 61 71 64 61 62 21 51 01 63 81 81 66 65 71 67 71 67 91 61 61 41
14 04 04 19 54 16 64 16 10 15 54 12 24 17 15 94 18 84 64 17 13 15 54 12 16 12 10 64 13 84 24 34 15 13 19 18 18 54 17 24 94 13 10 04 18 18 24 84 19
48 98 08 38 40 40 08 08 42 98 41 68 88 98 08 43 38 45 43 18 38 42 46 98 78 08 49 98 78 28 47 78 38 42 43 48 28 18 88 78 18 58 47 47 46 46 18 18 43 38 41 78 78
80 89 90 85 50 86 30 40 40 70 81 60 87 86 30 88 83 60 85 50 10 86 86 89 84 81 60 80 85 86 60 00 90 86 60 90 83 10 87 84 83 30 81 88 87 70 81 80 85 10 89 89 84 90 83 20 83
03 08 05 53 23 04 04 07 08 08 73 01 83 53 09 07 08 73 23 63 43 53 23 43 53 33 73 33 01 13 53 08 00 07 07 06 01 83 06 13 43 83 13 01 93 33 63 33 33 07 02 13 04 53 43 33 07 83 23 07 83
35 75 85 05 38 30 95 75 30 32 25 35 85 35 36 37 15 38 45 75 31 15 32 35 33 32 33 38 31 15 32 85 95 39 38 34 36 15 30 33 37 75 33 33 32 65 85 75 36 95 32 33 38 37 32 37
57 27 59 50 53 07 56 87 54 97 53 56 50 07 67 56 37 54 56 17 53 52 53 67 67 17 53 27 54 07 59 07 97 47 87 77 51 37 59 87 07 58 54 47 17 47 59 67 67 53 07 37 07 77 37
79 89 75 59 69 70 19 99 75 29 69 73 09 71 73 71 69 75 29 89 73 79 76 78 49 72 29 59 78 29 39 99 71 78 77 72 19 75 59 70 78 71 72 75 59 71 79 89 89 19 78 72 77 78 76
98 92 90 08 38 92 08 99 95 08 98 97 68 88 98 08 38 91 94 18 96 38 98 78 08 98 95 90 78 90 28 99 97 78 38 48 93 96 28 18 88 78 18 58 94 91 18 96 18 95 38 90 78 78
89 59 85 86 69 81 19 99 87 29 86 69 88 83 09 85 86 86 69 29 89 84 79 81 80 85 49 86 29 59 86 29 83 39 99 87 84 83 19 59 81 88 87 81 80 85 59 79 89 89 84 19 83 83
92 90 92 99 95 42 98 97 32 98 62 91 12 52 32 94 32 96 42 98 32 98 72 95 90 62 12 90 12 99 97 72 42 22 62 93 96 32 02 72 94 91 96 95 32 90 72 32
27 23 07 87 29 97 25 07 67 23 37 24 17 23 29 21 67 26 67 17 27 07 29 07 21 29 28 97 47 87 77 26 22 24 21 37 28 87 07 26 47 17 24 47 67 67 24 07 37 23 20 07 77 37
75 85 05 70 95 75 73 25 35 85 71 73 35 71 15 45 75 15 35 73 79 76 15 78 85 72 95 78 71 78 77 72 15 75 70 78 65 85 71 72 75 71 79 95 78 72 77 78 76
59 50 53 69 19 99 56 54 29 69 53 56 09 50 56 54 69 56 53 52 29 53 89 79 53 54 49 29 59 29 39 99 51 19 59 58 54 59 79 89 89 53 19
90 50 92 30 40 40 70 99 95 60 98 97 30 60 98 50 10 91 94 96 98 60 80 98 60 00 95 90 60 90 99 97 10 30 93 96 70 80 94 91 10 96 95 90 20
08 05 38 04 04 07 08 08 98 01 68 88 09 98 07 08 38 18 38 98 01 78 08 98 00 07 07 78 06 01 28 06 78 38 48 01 28 18 88 07 78 18 02 58 04 18 18 38 07 78 07 78
85 05 86 81 95 87 75 86 88 83 25 35 85 86 35 15 86 45 75 15 35 89 84 81 15 80 85 86 95 86 83 87 84 83 15 75 81 88 87 81 80 65 85 75 89 89 95 84 83 83
50 53 30 40 40 70 56 60 54 30 53 56 60 50 10 56 54 56 53 52 53 60 53 80 54 60 00 59 90 60 90 10 51 30 59 70 80 58 54 59 10 53 90 20
05 04 04 07 08 95 08 75 01 25 35 09 85 07 08 35 15 45 75 15 35 01 15 08 85 00 07 95 07 06 01 06 15 01 75 07 02 65 85 75 04 95 07 07
53 23 56 54 73 83 53 56 50 73 56 23 63 54 43 56 53 52 23 43 53 33 73 33 13 53 54 59 83 13 43 83 51 13 93 33 59 63 33 33 58 54 59 13 53 43 33 83 23 83
38 30 08 08 98 30 68 88 32 35 98 08 35 36 37 38 31 32 35 33 32 18 33 38 98 31 32 78 08 98 78 28 39 78 38 34 48 36 30 33 37 33 33 32 28 18 88 78 18 58 36 18 18 32 33 38 78 37 32 78 37
86 81 56 87 86 66 16 16 88 83 56 85 86 66 56 36 86 56 89 96 84 26 46 81 76 80 85 86 86 06 16 83 06 87 26 84 83 36 96 81 88 87 81 80 26 66 85 46 36 46 89 96 89 84 83 83 76
69 19 99 60 29 66 69 64 68 60 09 66 67 62 63 69 61 29 89 67 64 67 79 60 49 60 29 59 60 62 29 61 39 99 64 61 62 19 59 63 66 65 59 67 67 79 61 89 61 89 19
92 99 95 42 98 97 32 98 62 91 12 52 32 94 32 96 42 98 32 98 72 95 90 62 12 90 12 99 97 72 42 22 62 93 96 32 02 72 94 91 96 95 32 90 72 32
23 29 73 83 25 53 73 23 63 43 24 53 23 29 43 53 33 21 73 33 26 13 53 27 29 21 29 28 83 26 13 22 24 43 83 21 13 93 33 63 33 33 28 26 24 13 53 24 43 33 83 23 20 83
30 40 40 70 60 30 32 35 60 50 10 35 36 37 38 31 32 35 33 32 33 38 60 31 32 80 60 00 90 60 90 39 10 38 34 36 30 33 37 33 33 32 70 80 36 10 32 33 38 90 37 32 20 37
04 04 07 08 08 54 01 64 09 07 08 54 24 94 84 64 01 08 54 00 07 07 06 01 06 64 84 24 34 01 07 02 54 24 94 04 24 84 07 07
40 40 70 60 42 30 41 60 50 10 43 45 43 42 46 60 80 49 60 00 90 60 90 10 47 42 43 48 30 70 80 47 47 46 10 46 43 41 90 20
04 07 08 08 54 01 64 09 07 08 54 24 94 84 64 01 08 54 00 07 07 06 01 06 64 84 24 34 01 07 02 54 24 94 04 24 84 07 07
40 70 60 42 30 41 60 50 10 43 45 43 42 46 60 80 49 60 00 90 60 90 10 47 42 43 48 30 70 80 47 47 46 10 46 43 41 90 20
07 08 08 87 97 01 09 07 08 67 37 17 67 67 17 01 27 08 00 07 07 06 01 97 06 47 87 77 01 37 87 07 02 47 17 47 67 67 04 07 37 07 77 37
70 60 75 73 30 60 50 71 10 73 71 75 73 79 76 60 78 80 60 00 72 90 78 60 90 71 10 78 77 72 30 75 70 78 80 71 72 75 71 79 10 90 78 72 20 77 78 76
08 08 98 01 68 88 09 98 07 08 38 18 38 98 01 78 08 98 00 07 07 78 06 01 28 06 78 38 48 01 28 18 88 07 78 18 02 58 04 18 18 38 07 78 07 78
81 87 86 01 41 88 83 85 71 86 71 86 91 61 31 21 89 84 81 01 31 80 85 86 86 21 01 61 83 71 87 61 84 83 21 51 01 81 88 87 81 80 85 71 71 91 61 89 61 89 84 41 83 83
19 29 69 16 16 09 10 15 69 12 17 15 29 18 89 79 17 13 15 49 29 59 12 29 16 12 39 99 10 13 15 13 19 59 18 18 17 59 13 79 10 18 89 18 89 19
99 29 98 69 97 09 98 69 91 29 94 89 96 79 98 49 98 29 95 59 90 29 90 39 99 97 19 93 59 96 59 94 79 91 89 96 89 95 19 90
95 75 98 97 25 35 98 85 35 15 91 45 75 15 94 35 96 98 15 85 98 95 90 90 99 97 15 93 75 96 65 85 75 94 91 96 95 90
56 54 86 66 16 16 53 56 50 86 66 56 36 54 86 56 53 52 53 96 26 46 76 53 54 86 59 86 06 16 06 26 36 51 59 96 26 66 58 54 59 46 36 46 96 53 76
60 66 69 30 64 68 60 50 10 66 67 62 63 69 61 67 64 67 60 80 60 00 90 60 62 90 61 10 64 61 62 30 63 70 80 66 65 67 67 10 61 61 90 20
08 98 01 68 88 09 98 07 08 38 18 38 98 01 78 08 98 00 07 07 78 06 01 28 06 78 38 48 01 28 18 88 07 78 18 02 58 04 18 18 38 07 78 07 78
87 86 97 88 83 85 07 86 67 37 86 17 89 67 84 67 81 17 27 80 85 86 07 07 86 83 97 47 87 77 84 83 37 81 88 87 07 81 80 85 47 17 47 67 67 89 89 84 07 83 37 07 77 83 37
75 73 25 35 85 71 73 35 71 15 45 75 15 35 73 79 76 15 78 85 72 95 78 71 78 77 72 15 75 70 78 65 85 71 72 75 71 79 95 78 72 77 78 76
54 64 53 56 50 56 54 24 56 53 52 94 53 84 64 53 54 59 64 84 24 34 51 59 58 54 24 59 94 04 53 24 84
42 41 32 62 43 12 45 52 32 43 32 42 46 32 49 72 62 12 12 47 72 42 22 43 48 62 32 02 47 72 47 46 46 32 43 41 72 32
29 69 25 09 23 69 24 23 29 21 89 26 79 27 49 29 59 21 29 28 39 99 26 22 24 21 19 59 28 26 24 59 79 89 89 24 19 23 20
98 97 68 88 98 08 38 91 94 18 96 38 98 78 08 98 95 90 78 90 28 99 97 78 38 48 93 96 28 18 88 78 18 58 94 91 18 96 18 95 38 90 78 78
86 16 16 88 83 56 85 86 66 56 36 86 56 89 96 84 26 46 81 76 80 85 86 86 06 16 83 06 87 26 84 83 36 96 81 88 87 81 80 26 66 85 46 36 46 89 96 89 84 83 83 76
66 16 64 16 68 56 60 86 66 67 56 62 36 63 86 69 56 61 96 67 26 64 46 67 76 60 86 60 86 60 06 62 16 61 06 64 26 61 36 62 96 63 26 66 65 46 67 36 67 46 61 96 61 76
69 64 68 60 09 66 67 62 63 69 61 29 89 67 64 67 79 60 49 60 29 59 60 62 29 61 39 99 64 61 62 19 59 63 66 65 59 67 67 79 61 89 61 89 19
97 98 07 67 37 91 17 94 96 67 67 98 17 27 98 07 95 90 07 90 99 97 47 87 77 93 37 96 87 07 47 17 47 94 67 67 91 96 95 90 07 37 07 77 37
73 83 53 71 73 23 63 71 43 75 53 23 43 53 33 73 33 79 76 13 53 78 72 78 83 71 78 77 72 13 43 83 13 93 33 75 63 33 33 70 78 71 72 75 71 13 79 53 43 33 78 83 72 23 77 78 83 76
30 32 35 60 50 10 35 36 37 38 31 32 35 33 32 33 38 60 31 32 80 60 00 90 60 90 39 10 38 34 36 30 33 37 33 33 32 70 80 36 10 32 33 38 90 37 32 20 37
01 41 09 07 71 08 71 91 61 31 21 81 01 31 08 00 07 07 06 21 01 61 71 06 61 21 51 01 81 07 81 02 71 71 91 04 61 61 41 07 07
16 16 56 10 86 66 56 36 15 86 12 56 17 15 18 96 26 46 17 76 13 15 86 86 06 12 16 12 10 06 26 13 36 15 13 19 96 18 18 26 66 17 46 13 36 10 46 18 96 18 19 76
64 68 60 66 67 62 63 54 69 24 61 94 67 84 64 67 60 54 60 60 62 61 64 61 84 24 34 62 63 66 65 54 24 94 67 67 04 61 61 24 84
41 71 71 43 91 45 61 31 43 21 42 46 81 01 31 49 21 01 61 71 47 61 42 43 48 21 51 01 81 81 47 71 47 46 71 91 46 61 61 43 41
16 56 10 86 66 56 36 15 86 12 56 17 15 18 96 26 46 17 76 13 15 86 86 06 12 16 12 10 06 26 13 36 15 13 19 96 18 18 26 66 17 46 13 36 10 46 18 96 18 19 76
68 60 98 08 66 67 62 63 38 69 61 18 67 38 64 67 98 60 78 08 98 60 78 60 62 61 28 64 78 61 38 48 62 63 28 18 88 78 18 66 65 58 67 67 61 18 61 18 38 78 78
88 98 85 08 86 38 86 18 89 38 84 98 81 78 80 08 85 98 86 78 86 28 83 78 87 38 84 48 83 28 81 18 88 87 78 81 18 80 58 85 18 89 18 89 38 84 78 83 78 83
83 53 85 86 73 23 63 43 86 53 23 43 53 33 89 73 33 84 81 13 53 80 85 86 86 83 87 13 84 43 83 13 93 33 63 33 33 81 88 87 81 80 85 13 89 89 53 43 33 84 83 23 83
32 35 35 62 36 37 38 12 31 52 32 35 33 32 33 38 42 31 32 72 62 12 12 39 72 38 42 22 34 36 62 30 33 37 33 33 32 02 72 36 32 33 38 37 72 32 37
25 35 85 35 23 15 24 45 75 15 23 29 35 21 26 15 27 85 29 95 21 29 28 26 22 24 21 15 75 28 26 65 85 24 75 95 24 23 20
53 56 50 73 56 23 63 54 43 56 53 52 23 43 53 33 73 33 13 53 54 59 83 13 43 83 51 13 93 33 59 63 33 33 58 54 59 13 53 43 33 83 23 83
35 85 35 36 37 15 38 45 75 31 15 32 35 33 32 33 38 31 15 32 85 95 39 38 34 36 15 30 33 37 75 33 33 32 65 85 75 36 95 32 33 38 37 32 37
56 50 86 66 56 36 54 86 56 53 52 53 96 26 46 76 53 54 86 59 86 06 16 06 26 36 51 59 96 26 66 58 54 59 46 36 46 96 53 76
60 50 10 66 67 62 63 69 61 67 64 67 60 80 60 00 90 60 62 90 61 10 64 61 62 30 63 70 80 66 65 67 67 10 61 61 90 20
09 07 08 69 29 89 79 01 08 49 00 07 29 59 07 06 29 01 39 99 06 01 19 59 07 02 59 79 04 89 89 19 07 07
98 08 38 91 94 18 96 38 98 78 08 98 95 90 78 90 28 99 97 78 38 48 93 96 28 18 88 78 18 58 94 91 18 96 18 95 38 90 78 78
85 86 35 15 86 45 75 15 35 89 84 81 15 80 85 86 95 86 83 87 84 83 15 75 81 88 87 81 80 65 85 75 89 89 95 84 83 83
50 10 56 54 56 53 52 53 60 53 80 54 60 00 59 90 60 90 10 51 30 59 70 80 58 54 59 10 53 90 20
07 08 67 37 17 67 67 17 01 27 08 00 07 07 06 01 97 06 47 87 77 01 37 87 07 02 47 17 47 67 67 04 07 37 07 77 37
71 73 71 91 61 75 31 21 73 79 81 76 01 31 78 72 78 21 01 61 71 78 77 72 61 21 51 01 75 81 70 78 81 71 72 75 71 79 91 61 61 41 78 72 77 78 76
10 15 12 17 15 18 17 60 13 15 80 60 00 90 60 12 90 16 12 10 13 15 13 30 19 18 70 18 80 17 13 10 18 18 19 90 20
08 38 18 38 98 01 78 08 98 00 07 07 78 06 01 28 06 78 38 48 01 28 18 88 07 78 18 02 58 04 18 18 38 07 78 07 78
86 56 36 86 56 89 96 84 26 46 81 76 80 85 86 86 06 16 83 06 87 26 84 83 36 96 81 88 87 81 80 26 66 85 46 36 46 89 96 89 84 83 83 76
66 56 62 36 63 86 69 56 61 96 67 26 64 46 67 76 60 86 60 86 60 06 62 16 61 06 64 26 61 36 62 96 63 26 66 65 46 67 36 67 46 61 96 61 76
67 62 63 37 69 61 17 67 64 67 17 60 27 60 07 07 60 62 61 97 64 47 87 77 61 62 37 63 87 07 66 65 47 17 47 67 67 61 61 07 37 07 77 37
73 23 63 71 43 75 53 23 43 53 33 73 33 79 76 13 53 78 72 78 83 71 78 77 72 13 43 83 13 93 33 75 63 33 33 70 78 71 72 75 71 13 79 53 43 33 78 83 72 23 77 78 83 76
35 36 37 15 38 45 75 31 15 32 35 33 32 33 38 31 15 32 85 95 39 38 34 36 15 30 33 37 75 33 33 32 65 85 75 36 95 32 33 38 37 32 37
56 36 54 86 56 53 52 53 96 26 46 76 53 54 86 59 86 06 16 06 26 36 51 59 96 26 66 58 54 59 46 36 46 96 53 76
62 63 69 12 61 52 32 32 67 42 64 67 60 32 60 72 60 62 12 61 12 64 72 61 42 22 62 63 32 02 66 65 72 67 67 61 61 32 72 32
23 63 43 24 53 23 29 43 53 33 21 73 33 26 13 53 27 29 21 29 28 83 26 13 22 24 43 83 21 13 93 33 63 33 33 28 26 24 13 53 24 43 33 83 23 20 83
36 37 38 86 56 31 32 35 33 32 96 33 38 26 46 76 31 32 86 86 06 16 39 06 26 38 34 36 30 33 37 96 33 33 32 26 66 46 36 46 96 32 33 38 37 32 37 76
63 43 69 61 53 23 43 53 33 67 73 33 64 67 60 13 53 60 60 62 61 83 64 61 13 43 83 62 13 93 33 63 33 33 66 65 67 13 67 61 61 53 43 33 83 23 83
37 38 17 31 32 35 33 32 67 33 38 67 17 31 32 27 07 07 39 97 47 87 77 38 34 36 30 33 37 33 33 32 87 07 47 17 47 67 36 67 32 33 38 07 37 32 07 77 37
71 91 61 75 31 21 73 79 81 76 01 31 78 72 78 21 01 61 71 78 77 72 61 21 51 01 75 81 70 78 81 71 72 75 71 79 91 61 61 41 78 72 77 78 76
15 12 45 17 75 15 35 18 17 13 15 85 95 12 16 12 10 13 15 13 19 75 18 18 65 85 17 75 13 10 18 18 95 19
54 24 56 53 52 94 53 84 64 53 54 59 64 84 24 34 51 59 58 54 24 59 94 04 53 24 84
43 45 53 23 43 53 33 73 33 42 46 13 53 49 83 47 13 42 43 48 83 13 93 33 63 33 33 47 47 46 13 46 53 43 33 41 83 23 83
38 31 32 35 33 32 18 33 38 98 31 32 78 08 98 78 28 39 78 38 34 48 36 30 33 37 33 33 32 28 18 88 78 18 58 36 18 18 32 33 38 78 37 32 78 37
86 56 89 96 84 26 46 81 76 80 85 86 86 06 16 83 06 87 26 84 83 36 96 81 88 87 81 80 26 66 85 46 36 46 89 96 89 84 83 83 76
69 61 29 89 67 64 67 79 60 49 60 29 59 60 62 29 61 39 99 64 61 62 19 59 63 66 65 59 67 67 79 61 89 61 89 19
91 61 31 94 21 96 98 81 01 31 98 95 90 21 90 01 61 99 97 71 61 21 51 01 93 96 81 81 71 94 71 91 61 96 61 95 41 90
12 17 15 52 32 32 18 42 17 13 15 32 72 62 12 16 12 10 72 13 42 22 62 15 13 19 32 18 18 02 17 72 13 10 18 18 32 19 72 32
24 23 29 94 21 84 26 64 27 54 29 21 29 28 64 26 84 22 24 34 21 28 26 54 24 94 04 24 84 23 20
45 75 15 43 35 42 46 15 85 49 95 47 42 43 48 15 75 65 85 47 47 75 46 46 95 43 41
56 53 52 53 96 26 46 76 53 54 86 59 86 06 16 06 26 36 51 59 96 26 66 58 54 59 46 36 46 96 53 76
61 31 21 67 64 67 81 60 01 31 60 60 62 21 01 61 71 64 61 62 21 51 01 63 81 81 66 65 71 67 71 67 91 61 61 41
17 15 18 67 67 17 13 15 27 07 07 12 16 12 97 10 47 87 77 13 15 13 19 37 18 87 07 18 47 17 47 67 13 67 10 18 18 19 07 37 07 77 37
75 15 35 73 79 76 15 78 85 72 95 78 71 78 77 72 15 75 70 78 65 85 71 72 75 71 79 95 78 72 77 78 76
53 52 23 43 53 33 73 33 13 53 54 59 83 13 43 83 51 13 93 33 59 63 33 33 58 54 59 13 53 43 33 83 23 83
31 32 35 33 32 21 33 38 81 01 31 32 21 01 61 39 71 61 38 34 36 21 51 30 01 33 37 33 33 32 81 81 71 71 36 91 61 61 32 33 38 41 37 32 37
15 35 18 17 13 15 85 95 12 16 12 10 13 15 13 19 75 18 18 65 85 17 75 13 10 18 18 95 19
52 32 53 32 42 53 32 54 72 59 62 12 12 72 42 22 62 51 59 32 02 58 54 72 59 53 32 72 32
23 29 43 53 33 21 73 33 26 13 53 27 29 21 29 28 83 26 13 22 24 43 83 21 13 93 33 63 33 33 28 26 24 13 53 24 43 33 83 23 20 83
32 35 33 32 33 38 42 31 32 72 62 12 12 39 72 38 42 22 34 36 62 30 33 37 33 33 32 02 72 36 32 33 38 37 72 32 37
29 21 89 26 79 27 49 29 59 21 29 28 39 99 26 22 24 21 19 59 28 26 24 59 79 89 89 24 19 23 20
94 96 84 64 98 54 98 95 90 90 99 97 64 84 24 34 93 96 54 24 94 91 04 96 95 24 84 90
43 53 33 73 33 42 46 13 53 49 83 47 13 42 43 48 83 13 93 33 63 33 33 47 47 46 13 46 53 43 33 41 83 23 83
35 33 32 33 38 31 15 32 85 95 39 38 34 36 15 30 33 37 75 33 33 32 65 85 75 36 95 32 33 38 37 32 37
53 73 33 13 53 54 59 83 13 43 83 51 13 93 33 59 63 33 33 58 54 59 13 53 43 33 83 23 83
33 73 33 38 13 31 53 32 83 39 13 38 43 34 83 36 13 30 93 33 37 63 33 33 32 13 36 53 32 43 33 38 83 37 23 32 83 37
32 33 38 42 31 32 72 62 12 12 39 72 38 42 22 34 36 62 30 33 37 33 33 32 02 72 36 32 33 38 37 72 32 37
21 26 81 01 31 27 29 21 29 01 61 28 71 26 61 22 24 21 51 01 28 81 81 26 71 24 71 91 61 61 24 41 23 20
18 38 98 17 13 15 78 08 98 78 12 16 12 28 10 78 13 38 48 15 13 19 28 18 88 78 18 58 17 13 10 18 18 38 19 78 78
89 84 79 81 80 85 49 86 29 59 86 29 83 39 99 87 84 83 19 59 81 88 87 81 80 85 59 79 89 89 84 19 83 83
96 26 46 98 76 98 86 95 90 86 06 90 16 99 97 06 26 36 93 96 26 66 94 46 36 91 46 96 95 90 76
67 64 67 17 60 27 60 07 07 60 62 61 97 64 47 87 77 61 62 37 63 87 07 66 65 47 17 47 67 67 61 61 07 37 07 77 37
73 79 76 13 53 78 72 78 83 71 78 77 72 13 43 83 13 93 33 75 63 33 33 70 78 71 72 75 71 13 79 53 43 33 78 83 72 23 77 78 83 76
33 13 31 53 32 83 39 13 38 43 34 83 36 13 30 93 33 37 63 33 33 32 13 36 53 32 43 33 38 83 37 23 32 83 37
38 98 31 32 78 08 98 78 28 39 78 38 34 48 36 30 33 37 33 33 32 28 18 88 78 18 58 36 18 18 32 33 38 78 37 32 78 37
84 64 81 80 85 54 86 86 83 64 87 84 24 34 83 81 88 87 81 80 85 54 24 94 04 89 89 24 84 83 83
42 46 32 49 72 62 12 12 47 72 42 22 43 48 62 32 02 47 72 47 46 46 32 43 41 72 32
26 46 76 27 86 29 86 06 21 29 16 28 06 26 22 24 36 21 96 28 26 66 24 46 36 46 96 24 23 20 76
64 67 60 54 60 60 62 61 64 61 84 24 34 62 63 66 65 54 24 94 67 67 04 61 61 24 84
46 76 49 86 86 06 16 06 47 26 42 43 48 36 96 26 66 47 47 46 36 46 96 43 41 76
67 17 60 27 60 07 07 60 62 61 97 64 47 87 77 61 62 37 63 87 07 66 65 47 17 47 67 67 61 61 07 37 07 77 37
79 76 78 49 72 29 59 78 29 39 99 71 78 77 72 19 75 59 70 78 71 72 75 59 71 79 89 89 19 78 72 77 78 76
98 78 08 98 95 90 78 90 28 99 97 78 38 48 93 96 28 18 88 78 18 58 94 91 18 96 18 95 38 90 78 78
81 01 31 80 85 86 86 21 01 61 83 71 87 61 84 83 21 51 01 81 88 87 81 80 85 71 71 91 61 89 61 89 84 41 83 83
17 13 15 27 07 07 12 16 12 97 10 47 87 77 13 15 13 19 37 18 87 07 18 47 17 47 67 13 67 10 18 18 19 07 37 07 77 37
76 78 86 72 78 86 06 16 71 06 78 77 72 26 36 75 96 70 78 26 66 71 72 75 46 71 36 79 46 96 78 72 77 78 76
60 80 60 00 90 60 62 90 61 10 64 61 62 30 63 70 80 66 65 67 67 10 61 61 90 20
01 31 08 00 07 07 06 21 01 61 71 06 61 21 51 01 81 07 81 02 71 71 91 04 61 61 41 07 07
13 15 53 12 16 12 83 10 13 43 83 15 13 19 93 33 63 33 33 18 18 17 13 10 18 18 53 43 33 19 83 23 83
31 32 21 01 61 39 71 61 38 34 36 21 51 30 01 33 37 33 33 32 81 81 71 71 36 91 61 61 32 33 38 41 37 32 37
15 85 95 12 16 12 10 13 15 13 19 75 18 18 65 85 17 75 13 10 18 18 95 19
53 54 59 83 13 43 83 51 13 93 33 59 63 33 33 58 54 59 13 53 43 33 83 23 83
32 72 62 12 12 39 72 38 42 22 34 36 62 30 33 37 33 33 32 02 72 36 32 33 38 37 72 32 37
27 07 29 07 21 29 28 97 47 87 77 26 22 24 21 37 28 87 07 26 47 17 24 47 67 67 24 07 37 23 20 07 77 37
78 08 98 72 78 28 71 78 77 72 38 48 75 28 18 88 70 78 18 58 71 72 75 71 79 18 18 38 78 72 77 78 76
80 85 86 60 00 90 86 60 90 83 10 87 84 83 30 81 88 87 70 81 80 85 10 89 89 84 90 83 20 83
08 98 00 07 07 78 06 01 28 06 78 38 48 01 28 18 88 07 78 18 02 58 04 18 18 38 07 78 07 78
85 86 95 86 83 87 84 83 15 75 81 88 87 81 80 65 85 75 89 89 95 84 83 83
54 59 64 84 24 34 51 59 58 54 24 59 94 04 53 24 84
49 29 59 29 39 99 47 42 43 48 19 59 47 47 59 46 79 46 89 89 43 41 19
98 95 90 78 90 28 99 97 78 38 48 93 96 28 18 88 78 18 58 94 91 18 96 18 95 38 90 78 78
86 86 06 16 83 06 87 26 84 83 36 96 81 88 87 81 80 26 66 85 46 36 46 89 96 89 84 83 83 76
60 90 60 62 90 61 10 64 61 62 30 63 70 80 66 65 67 67 10 61 61 90 20
00 90 07 60 06 90 01 10 06 30 01 70 07 80 02 10 04 90 07 20 07
07 07 06 01 97 06 47 87 77 01 37 87 07 02 47 17 47 67 67 04 07 37 07 77 37
72 78 62 12 12 71 78 77 72 42 22 62 75 32 70 78 02 71 72 75 71 79 32 78 72 32 77 78 76
29 59 21 29 28 39 99 26 22 24 21 19 59 28 26 24 59 79 89 89 24 19 23 20
95 90 90 99 97 15 93 75 96 65 85 75 94 91 96 95 90
59 29 39 99 51 19 59 58 54 59 79 89 89 53 19
90 60 90 99 97 10 30 93 96 70 80 94 91 10 96 95 90 20
07 06 01 97 06 47 87 77 01 37 87 07 02 47 17 47 67 67 04 07 37 07 77 37
78 28 71 78 77 72 38 48 75 28 18 88 70 78 18 58 71 72 75 71 79 18 18 38 78 72 77 78 76
86 06 16 83 06 87 26 84 83 36 96 81 88 87 81 80 26 66 85 46 36 46 89 96 89 84 83 83 76
60 62 90 61 10 64 61 62 30 63 70 80 66 65 67 67 10 61 61 90 20
06 01 16 06 26 36 01 96 07 02 26 66 46 36 04 46 96 07 07 76
62 12 61 12 64 72 61 42 22 62 63 32 02 66 65 72 67 67 61 61 32 72 32
21 29 01 61 28 71 26 61 22 24 21 51 01 28 81 81 26 71 24 71 91 61 61 24 41 23 20
12 16 12 10 72 13 42 22 62 15 13 19 32 18 18 02 17 72 13 10 18 18 32 19 72 32
29 28 39 99 26 22 24 21 19 59 28 26 24 59 79 89 89 24 19 23 20
90 99 97 10 30 93 96 70 80 94 91 10 96 95 90 20
01 61 71 06 61 21 51 01 81 07 81 02 71 71 91 04 61 61 41 07 07
16 12 10 06 26 13 36 15 13 19 96 18 18 26 66 17 46 13 36 10 46 18 96 18 19 76
61 71 64 61 62 21 51 01 63 81 81 66 65 71 67 71 67 91 61 61 41
12 10 72 13 42 22 62 15 13 19 32 18 18 02 17 72 13 10 18 18 32 19 72 32
28 78 26 38 22 24 48 21 28 18 88 78 18 26 58 24 18 18 24 38 78 23 20 78
83 87 13 84 43 83 13 93 33 63 33 33 81 88 87 81 80 85 13 89 89 53 43 33 84 83 23 83
39 38 34 36 30 19 33 37 59 33 33 32 59 36 79 89 89 32 33 38 19 37 32 37
99 19 93 59 96 59 94 79 91 89 96 89 95 19 90
97 47 87 77 93 37 96 87 07 47 17 47 94 67 67 91 96 95 90 07 37 07 77 37
71 78 77 72 61 21 51 01 75 81 70 78 81 71 72 75 71 79 91 61 61 41 78 72 77 78 76
10 13 15 13 30 19 18 70 18 80 17 13 10 18 18 19 90 20
06 26 36 01 96 07 02 26 66 46 36 04 46 96 07 07 76
64 61 84 24 34 62 63 66 65 54 24 94 67 67 04 61 61 24 84
47 87 77 42 43 48 37 87 07 47 17 47 46 67 67 46 43 41 07 37 07 77 37
78 77 72 38 48 75 28 18 88 70 78 18 58 71 72 75 71 79 18 18 38 78 72 77 78 76
87 84 83 37 81 88 87 07 81 80 85 47 17 47 67 67 89 89 84 07 83 37 07 77 83 37
77 37 75 87 70 07 78 47 71 17 72 47 75 67 71 67 79 07 78 37 72 07 77 78 37 76
72 42 22 62 75 32 70 78 02 71 72 75 71 79 32 78 72 32 77 78 76
26 22 24 36 21 96 28 26 66 24 46 36 46 96 24 23 20 76
61 62 21 51 01 63 81 81 66 65 71 67 71 67 91 61 61 41
13 43 83 15 13 19 93 33 63 33 33 18 18 17 13 10 18 18 53 43 33 19 83 23 83
38 34 48 36 30 33 37 33 33 32 28 18 88 78 18 58 36 18 18 32 33 38 78 37 32 78 37
84 24 34 83 81 88 87 81 80 85 54 24 94 04 89 89 24 84 83 83
42 43 48 62 32 02 47 72 47 46 46 32 43 41 72 32
22 62 21 32 28 02 26 72 24 32 24 72 23 32 20
24 34 21 28 26 54 24 94 04 24 84 23 20
43 48 83 13 93 33 63 33 33 47 47 46 13 46 53 43 33 41 83 23 83
34 36 30 33 37 33 33 32 54 24 94 36 04 32 24 33 38 84 37 32 37
48 28 18 88 78 18 58 47 47 46 46 18 18 43 38 41 78 78
83 13 93 33 63 33 33 81 88 87 81 80 85 13 89 89 53 43 33 84 83 23 83
36 30 33 37 96 33 33 32 26 66 46 36 46 96 32 33 38 37 32 37 76
62 63 32 02 66 65 72 67 67 61 61 32 72 32
21 51 01 28 81 81 26 71 24 71 91 61 61 24 41 23 20
15 13 19 75 18 18 65 85 17 75 13 10 18 18 95 19
51 01 59 81 81 58 54 71 59 71 91 61 61 53 41
13 19 93 33 63 33 33 18 18 17 13 10 18 18 53 43 33 19 83 23 83
30 33 37 33 33 32 70 80 36 10 32 33 38 90 37 32 20 37
01 81 07 81 02 71 71 91 04 61 61 41 07 07
19 59 18 18 17 59 13 79 10 18 89 18 89 19
93 96 63 33 33 94 13 91 96 95 53 43 33 90 83 23 83
33 63 33 33 32 13 36 53 32 43 33 38 83 37 23 32 83 37
37 33 33 32 87 07 47 17 47 67 36 67 32 33 38 07 37 32 07 77 37
75 70 78 65 85 71 72 75 71 79 95 78 72 77 78 76
59 58 54 59 79 89 89 53 19
96 26 66 94 46 36 91 46 96 95 90 76
63 33 66 65 67 13 67 61 61 53 43 33 83 23 83
33 32 13 36 53 32 43 33 38 83 37 23 32 83 37
33 13 36 53 32 43 33 38 83 37 23 32 83 37
32 02 72 36 32 33 38 37 72 32 37
28 18 88 78 18 26 58 24 18 18 24 38 78 23 20 78
81 88 87 81 80 85 71 71 91 61 89 61 89 84 41 83 83
18 78 18 58 17 13 10 18 18 38 19 78 78
88 78 81 18 80 58 85 18 89 18 89 38 84 78 83 78 83
87 07 81 80 85 47 17 47 67 67 89 89 84 07 83 37 07 77 83 37
70 78 80 71 72 75 71 79 10 90 78 72 20 77 78 76
07 02 47 17 47 67 67 04 07 37 07 77 37
78 18 58 71 72 75 71 79 18 18 38 78 72 77 78 76
81 80 85 71 71 91 61 89 61 89 84 41 83 83
18 58 17 13 10 18 18 38 19 78 78
80 85 10 89 89 84 90 83 20 83
02 72 04 32 07 72 32 07
26 24 46 36 46 96 24 23 20 76
66 46 67 36 67 46 61 96 61 76
65 85 75 67 67 61 61 95
58 54 59 18 18 53 38 78 78
85 75 89 89 95 84 83 83
54 24 59 94 04 53 24 84
47 17 47 46 67 67 46 43 41 07 37 07 77 37
71 72 75 71 79 91 61 61 41 78 72 77 78 76
17 47 67 13 67 10 18 18 19 07 37 07 77 37
72 75 71 79 32 78 72 32 77 78 76
24 94 04 24 84 23 20
47 46 67 67 46 43 41 07 37 07 77 37
75 71 79 95 78 72 77 78 76
59 79 89 89 53 19
94 91 04 96 95 24 84 90
46 36 46 96 43 41 76
67 67 61 61 07 37 07 77 37
71 79 91 61 61 41 78 72 77 78 76
13 10 18 18 53 43 33 19 83 23 83
36 46 96 32 33 38 37 32 37 76
67 61 61 07 37 07 77 37
79 89 89 19 78 72 77 78 76
91 61 96 61 95 41 90
10 18 18 19 90 20
04 24 84 07 07
46 96 43 41 76
61 61 41
18 18 38 19 78 78
89 89 84 19 83 83
96 95 90 76
61 41
18 38 19 78 78
89 84 19 83 83
95 90
53 43 33 83 23 83
32 33 38 37 72 32 37
24 84 23 20
43 41 83 23 83
33 83 37 23 32 83 37
38 78 37 32 78 37
84 83 83
90 20
07 37 07 77 37
78 72 77 78 76
83 23 83
37 32 07 77 37
72 32 77 78 76
23 20 83
32 37
07 37
77 37 76
78 76
<------------Next-300-Signals------------>
66 16 62 16 64 96 63 36 62 36 64 46 60 16 69 96 65 46 61 16 64 26 60 06 66 65 96 67 86 67 76 69 36 60 86 60 06 60 06 69 76 66 61 36 68 86 62 86 62 46 62 16 60 06 68 06 65 56 68 96 60 16 63 36 65
62 42 62 12 64 63 62 52 32 82 64 12 60 69 65 61 64 32 72 92 32 42 82 92 82 92 22 60 66 65 67 67 69 60 60 60 69 66 61 12 12 22 68 62 62 22 62 60 68 65 68 92 52 60 63 02 22 65
27 23 29 28 47 77 21 23 28 29 97 77 77 24 47 27 23 29 24 29 29 28 28 87 22 26 67 77 57 67 57 17 47 27 77 22 21 17 20 07 22 24 29 87 17 24 29 22 28
73 23 83 77 79 63 33 23 93 77 77 78 83 43 93 79 13 43 72 23 83 79 77 79 03 70 13 33 75 76 79 93 33 83 93 53 76 03 77 71 70 03 33 78 93 33 74 13 93 70 93 63 93 13 53 93
34 30 31 64 33 36 32 34 84 36 64 30 24 30 04 54 44 14 30 64 94 32 39 14 32 24 44 31 33 38 54 33 36 14 14 44 04 39 30 34 34 33 36 14 24 44 33 30 74 44 44 39 31 24 39 84 39 31 35 31 84 36
42 62 12 47 62 52 32 82 49 48 43 12 46 45 44 46 47 49 43 32 72 92 41 32 44 42 82 92 82 92 22 49 41 44 48 48 47 41 12 12 22 48 62 62 22 44 46 62 44 44 41 92 41 52 45 02 22 49
23 29 28 83 63 33 21 23 28 29 93 83 43 24 93 13 43 27 23 29 83 24 29 29 28 28 22 26 03 13 33 93 33 83 93 53 03 27 22 21 03 33 20 22 24 29 93 33 13 93 24 29 93 63 93 13 53 22 28 93
30 31 33 36 32 34 36 30 60 30 90 30 32 39 32 60 10 31 10 70 33 38 90 33 36 60 60 39 30 00 60 34 90 34 70 33 36 20 33 30 00 60 39 31 70 00 39 60 39 31 35 31 10 00 36
08 28 18 28 78 48 01 01 04 01 01 18 18 28 28 06 03 05 01 38 01 01 48 04 48 18 00 06 06 98 03 03 68 58 48 88 07 78 00 08 06 68 88 88 00 06 68 88 98 01 18 00 02 28 58
81 91 83 31 21 85 82 84 83 01 11 01 61 01 01 91 41 83 91 82 82 87 91 31 01 86 01 01 41 86 89 51 83 85 61 41 71 21 85 85 51 88 86 86 87 41 88 88 81 31 88 85 41 84 91 01 89 91 31 31 84
16 12 16 96 36 18 36 11 12 46 16 96 46 14 13 16 14 18 18 26 06 66 96 10 10 13 86 76 17 36 14 14 86 18 06 06 76 66 15 12 12 17 36 14 86 86 46 16 06 13 17 06 56 15 19 96 18 16 13 10 36
62 12 64 63 62 52 32 82 64 12 60 69 65 61 64 32 72 92 32 42 82 92 82 92 22 60 66 65 67 67 69 60 60 60 69 66 61 12 12 22 68 62 62 22 62 60 68 65 68 92 52 60 63 02 22 65
29 28 79 21 23 28 29 49 24 69 59 79 49 27 23 39 29 99 24 29 29 28 28 79 22 26 59 79 49 69 79 89 39 59 69 59 27 22 21 20 22 24 29 39 59 24 29 39 59 19 89 39 22 28 49
91 31 96 21 93 97 01 11 01 93 96 61 90 01 01 94 92 99 91 41 91 92 92 96 91 31 01 95 90 01 93 01 41 95 51 95 93 98 61 90 41 71 21 51 93 41 81 93 31 92 41 93 98 91 96 01 91 93 31 31 93
12 16 62 18 52 32 82 11 12 16 14 13 16 32 72 92 14 18 32 42 18 82 92 82 92 22 10 10 13 17 14 14 18 15 12 12 22 17 14 62 62 22 62 16 13 17 92 15 52 19 18 16 13 10 02 22
28 21 18 23 28 29 78 48 24 27 23 29 18 24 29 18 29 28 28 22 26 38 48 48 18 98 27 22 21 68 58 48 88 20 78 22 24 29 08 68 88 88 68 88 24 29 98 18 22 28 58
83 63 33 85 23 82 93 84 83 43 93 13 43 23 83 82 82 87 03 13 33 86 93 33 86 89 83 93 85 53 03 03 33 85 85 88 86 86 93 33 87 88 88 81 13 93 88 85 93 84 89 63 93 13 53 84 93
31 33 36 21 32 34 36 30 01 11 01 30 61 01 30 01 32 39 91 41 32 91 91 31 01 33 38 01 33 36 01 41 51 39 30 34 61 34 41 71 21 33 36 51 33 30 41 81 39 31 41 39 91 01 91 39 31 35 31 36
16 96 36 18 36 11 12 46 16 96 46 14 13 16 14 18 18 26 06 66 96 10 10 13 86 76 17 36 14 14 86 18 06 06 76 66 15 12 12 17 36 14 86 86 46 16 06 13 17 06 56 15 19 96 18 16 13 10 36
64 63 62 34 84 64 24 60 69 04 65 54 44 61 14 64 94 14 24 44 60 66 65 67 67 54 69 60 14 14 44 60 04 60 69 34 66 61 34 68 14 62 62 24 44 62 74 44 44 60 68 65 68 24 84 60 63 84 65
47 49 97 77 77 48 43 46 45 44 46 47 49 43 27 41 44 42 87 67 77 57 67 49 57 17 41 44 48 48 47 41 27 77 17 48 07 44 46 87 44 44 41 17 41 45 49
77 97 77 77 78 47 79 27 72 87 79 67 77 79 57 70 67 75 57 76 17 79 47 76 27 77 71 17 70 07 78 87 74 17 70
79 29 49 77 77 78 69 59 79 49 72 39 29 99 29 29 79 59 77 79 70 75 49 76 69 79 89 39 59 69 76 59 77 71 70 78 29 74 39 70 59 29 39 59 19 89 39 49
96 36 93 97 36 46 16 93 96 46 90 16 94 92 99 91 91 92 92 26 06 66 96 91 86 95 76 90 93 36 86 95 95 93 06 06 98 76 66 90 36 86 86 46 93 16 06 93 06 56 92 93 98 91 96 91 16 93 93 36
63 62 23 93 83 64 43 60 69 93 65 61 13 64 43 23 83 60 66 65 67 03 13 33 67 69 93 33 60 60 83 93 60 69 53 66 61 03 03 33 68 62 62 62 93 33 60 68 13 93 65 68 93 60 63 93 13 53 93 65
33 23 32 93 34 83 36 43 30 93 30 13 30 43 32 23 39 83 32 03 31 13 33 38 93 33 36 83 39 93 30 53 34 03 34 03 33 36 93 33 30 13 39 93 31 93 39 63 39 93 31 13 35 53 31 93 36
36 32 34 36 30 46 16 30 96 46 30 16 32 39 32 26 06 66 96 31 33 38 86 76 33 36 86 39 30 06 06 34 76 66 34 33 36 86 86 46 33 30 16 06 39 31 06 56 39 96 16 39 31 35 31 36
62 52 32 82 64 12 60 69 65 61 64 32 72 92 32 42 82 92 82 92 22 60 66 65 67 67 69 60 60 60 69 66 61 12 12 22 68 62 62 22 62 60 68 65 68 92 52 60 63 02 22 65
21 23 28 29 01 11 24 01 61 01 01 27 23 29 91 41 24 29 91 29 28 28 22 26 91 31 01 01 01 41 51 61 41 27 71 22 21 51 20 22 24 29 41 81 31 24 41 29 91 01 91 31 31 22 28
18 28 78 48 11 12 16 14 13 16 14 18 18 28 28 10 10 13 38 17 14 14 48 48 18 98 15 12 12 17 68 58 14 48 88 78 08 16 68 88 88 13 17 68 88 15 98 19 18 16 13 10 28 58
85 82 84 83 45 65 83 82 82 87 65 05 86 75 95 86 89 95 83 95 85 15 55 85 85 55 88 86 86 87 88 88 81 65 88 85 15 84 45 89 35 84 65
52 32 82 12 59 54 32 72 92 32 42 82 92 82 92 22 59 57 54 57 51 59 53 55 59 12 12 22 58 55 51 62 62 22 62 56 59 92 52 59 53 02 22 58
23 28 29 93 83 43 24 93 13 43 27 23 29 83 24 29 29 28 28 22 26 03 13 33 93 33 83 93 53 03 27 22 21 03 33 20 22 24 29 93 33 13 93 24 29 93 63 93 13 53 22 28 93
32 82 34 36 30 12 30 30 32 72 39 92 32 42 82 92 82 92 22 31 33 38 33 36 39 30 34 34 12 12 22 33 36 62 62 22 62 33 30 39 31 92 52 39 39 31 35 31 02 22 36
28 29 78 48 24 27 23 29 18 24 29 18 29 28 28 22 26 38 48 48 18 98 27 22 21 68 58 48 88 20 78 22 24 29 08 68 88 88 68 88 24 29 98 18 22 28 58
82 84 83 12 32 72 92 83 32 42 82 92 82 87 92 22 86 86 89 83 85 12 12 22 85 85 88 86 62 86 62 22 62 87 88 88 81 88 85 92 52 84 89 02 22 84
29 49 24 69 59 79 49 27 23 39 29 99 24 29 29 28 28 79 22 26 59 79 49 69 79 89 39 59 69 59 27 22 21 20 22 24 29 39 59 24 29 39 59 19 89 39 22 28 49
93 97 83 43 93 96 90 13 94 43 23 92 99 91 83 91 92 92 96 91 03 13 33 95 90 93 33 95 83 95 93 98 53 90 03 03 33 93 33 13 93 92 93 98 91 96 91 63 93 13 53 93
34 84 36 64 30 24 30 04 54 44 14 30 64 94 32 39 14 32 24 44 31 33 38 54 33 36 14 14 44 04 39 30 34 34 33 36 14 24 44 33 30 74 44 44 39 31 24 39 84 39 31 35 31 84 36
49 48 43 46 69 45 59 44 46 47 79 49 43 39 29 99 41 44 42 29 29 79 59 79 49 69 79 41 44 48 48 89 39 59 69 47 59 41 48 44 46 29 44 44 41 39 59 41 29 39 45 59 19 89 39 49
97 77 93 96 47 90 94 27 92 99 91 91 92 87 92 96 67 77 91 57 67 95 57 90 17 93 95 95 93 98 47 90 27 77 17 07 93 87 93 17 92 93 98 91 96 91 93 93
77 78 47 79 27 72 87 79 67 77 79 57 70 67 75 57 76 17 79 47 76 27 77 71 17 70 07 78 87 74 17 70
77 47 79 27 72 87 79 67 77 79 57 70 67 75 57 76 17 79 47 76 27 77 71 17 70 07 78 87 74 17 70
78 48 79 72 18 18 28 28 79 77 79 70 38 75 76 79 48 48 18 98 76 77 71 70 68 58 48 88 78 08 74 68 88 88 70 68 88 98 18 28 58
84 83 64 24 04 54 44 14 64 94 14 83 24 44 82 82 87 86 54 14 14 44 86 04 89 83 85 34 34 85 85 14 88 86 86 24 44 87 74 44 44 88 88 81 88 85 24 84 89 84
48 43 46 45 44 46 47 49 43 41 18 44 42 18 28 28 38 49 41 44 48 48 18 98 47 41 68 58 48 88 78 44 46 08 44 44 41 68 88 88 68 88 41 98 45 18 28 49 58
83 43 93 13 43 23 83 82 82 87 03 13 33 86 93 33 86 89 83 93 85 53 03 03 33 85 85 88 86 86 93 33 87 88 88 81 13 93 88 85 93 84 89 63 93 13 53 84 93
36 30 46 16 30 96 46 30 16 32 39 32 26 06 66 96 31 33 38 86 76 33 36 86 39 30 06 06 34 76 66 34 33 36 86 86 46 33 30 16 06 39 31 06 56 39 96 16 39 31 35 31 36
64 24 60 69 04 65 54 44 61 14 64 94 14 24 44 60 66 65 67 67 54 69 60 14 14 44 60 04 60 69 34 66 61 34 68 14 62 62 24 44 62 74 44 44 60 68 65 68 24 84 60 63 84 65
43 46 93 45 44 46 47 13 49 43 23 41 83 44 42 03 13 33 49 93 33 41 44 48 48 83 93 53 47 03 41 03 33 48 44 46 93 33 44 44 41 13 93 41 93 45 63 93 13 53 49 93
30 60 30 90 30 32 39 32 60 10 31 10 70 33 38 90 33 36 60 60 39 30 00 60 34 90 34 70 33 36 20 33 30 00 60 39 31 70 00 39 60 39 31 35 31 10 00 36
01 01 04 61 01 01 91 41 91 06 91 03 31 05 01 01 01 41 04 51 00 06 06 61 03 41 71 21 03 51 07 00 08 41 06 81 31 00 06 41 91 01 91 31 31 00 02
11 01 16 61 14 01 13 01 16 91 14 41 18 91 18 91 10 31 10 01 13 01 17 01 14 41 14 51 18 61 15 41 12 71 12 21 17 51 14 41 16 81 13 31 17 41 15 91 19 01 18 91 16 31 13 31 10
12 16 14 13 16 32 72 92 14 18 32 42 18 82 92 82 92 22 10 10 13 17 14 14 18 15 12 12 22 17 14 62 62 22 62 16 13 17 92 15 52 19 18 16 13 10 02 22
24 04 54 44 14 64 94 27 23 29 14 24 44 29 29 28 28 22 26 54 14 14 44 04 34 34 27 22 21 14 20 22 24 44 29 74 44 44 24 29 84 22 28 84
46 16 45 96 44 46 47 16 49 43 41 44 42 26 06 66 96 86 49 76 36 41 44 48 86 48 06 06 47 76 66 41 36 48 86 86 44 46 44 44 41 16 06 06 56 41 45 96 16 49 36
60 69 30 65 61 90 30 64 60 66 65 67 10 10 70 67 69 90 60 60 30 00 60 69 66 61 90 70 68 62 20 62 62 30 00 60 68 70 00 65 68 60 63 10 00 65
01 04 61 01 01 91 41 91 06 91 03 31 05 01 01 01 41 04 51 00 06 06 61 03 41 71 21 03 51 07 00 08 41 06 81 31 00 06 41 91 01 91 31 31 00 02
16 96 46 14 13 16 14 18 18 26 06 66 96 10 10 13 86 76 17 36 14 14 86 18 06 06 76 66 15 12 12 17 36 14 86 86 46 16 06 13 17 06 56 15 19 96 18 16 13 10 36
69 59 65 61 79 64 49 39 29 99 29 29 79 60 66 65 59 67 79 67 49 69 79 60 60 89 39 59 60 69 66 61 59 68 62 62 62 29 60 68 39 65 68 59 29 39 59 19 60 89 63 39 49 65
93 96 90 13 94 43 23 92 99 91 83 91 92 92 96 91 03 13 33 95 90 93 33 95 83 95 93 98 53 90 03 03 33 93 33 13 93 92 93 98 91 96 91 63 93 13 53 93
30 90 30 32 39 32 60 10 31 10 70 33 38 90 33 36 60 60 39 30 00 60 34 90 34 70 33 36 20 33 30 00 60 39 31 70 00 39 60 39 31 35 31 10 00 36
04 54 44 14 01 01 64 94 14 24 44 06 03 05 01 54 01 01 14 14 44 04 00 06 06 34 03 34 03 14 07 24 44 00 08 74 44 44 06 00 06 24 84 01 00 02 84
45 65 44 46 47 49 43 41 44 42 65 05 75 49 95 41 44 48 48 95 95 85 47 15 55 41 85 85 55 48 44 46 44 44 41 65 85 41 15 45 35 49 65
59 54 79 49 39 29 99 29 29 79 59 79 57 54 49 57 69 79 89 51 39 59 69 53 55 59 58 55 51 29 39 56 59 52 29 39 59 19 89 39 53 49 58
96 46 90 16 94 92 99 91 91 92 92 26 06 66 96 91 86 95 76 90 93 36 86 95 95 93 06 06 98 76 66 90 36 86 86 46 93 16 06 93 06 56 92 93 98 91 96 91 16 93 93 36
65 61 64 60 66 65 67 05 67 75 95 69 60 60 95 95 60 69 85 66 61 15 55 68 85 85 55 62 62 62 60 68 65 68 85 15 45 60 63 35 65
54 14 64 94 14 24 44 59 57 54 57 14 14 44 04 51 59 53 34 55 59 34 58 55 51 14 24 44 74 44 44 56 59 24 52 84 59 53 84 58
44 14 47 64 49 94 43 14 41 24 44 42 54 49 14 41 14 44 48 04 48 34 47 34 41 14 48 24 44 46 74 44 44 41 24 41 84 45 84 49
46 47 16 49 43 41 44 42 26 06 66 96 86 49 76 36 41 44 48 86 48 06 06 47 76 66 41 36 48 86 86 44 46 44 44 41 16 06 06 56 41 45 96 16 49 36
61 01 01 64 91 41 91 60 66 65 67 91 31 01 67 69 01 60 01 41 60 51 60 69 66 61 41 71 21 68 51 62 62 62 41 60 68 81 31 65 68 41 91 60 01 91 63 31 31 65
14 13 16 64 94 14 18 24 44 18 10 10 13 54 17 14 14 44 04 18 34 15 34 12 12 17 14 24 44 74 44 44 16 13 17 24 15 84 19 18 16 13 10 84
47 49 43 27 41 44 42 87 67 77 57 67 49 57 17 41 44 48 48 47 41 27 77 17 48 07 44 46 87 44 44 41 17 41 45 49
79 49 72 39 29 99 29 29 79 59 77 79 70 75 49 76 69 79 89 39 59 69 76 59 77 71 70 78 29 74 39 70 59 29 39 59 19 89 39 49
90 30 94 92 99 91 91 92 92 60 96 91 10 10 70 95 90 93 60 60 95 95 93 30 00 60 98 90 70 20 93 30 00 60 93 70 00 92 93 98 91 96 60 91 93 10 00 93
01 01 91 41 91 06 91 03 31 05 01 01 01 41 04 51 00 06 06 61 03 41 71 21 03 51 07 00 08 41 06 81 31 00 06 41 91 01 91 31 31 00 02
13 16 43 23 14 18 83 18 10 03 10 13 33 17 93 33 14 14 18 83 93 53 15 03 12 12 17 03 33 14 93 33 16 13 93 17 15 93 19 18 16 63 93 13 53 10 93
30 32 39 32 60 10 31 10 70 33 38 90 33 36 60 60 39 30 00 60 34 90 34 70 33 36 20 33 30 00 60 39 31 70 00 39 60 39 31 35 31 10 00 36
01 91 41 91 06 91 03 31 05 01 01 01 41 04 51 00 06 06 61 03 41 71 21 03 51 07 00 08 41 06 81 31 00 06 41 91 01 91 31 31 00 02
16 14 18 18 26 06 66 96 10 10 13 86 76 17 36 14 14 86 18 06 06 76 66 15 12 12 17 36 14 86 86 46 16 06 13 17 06 56 15 19 96 18 16 13 10 36
64 94 14 24 44 60 66 65 67 67 54 69 60 14 14 44 60 04 60 69 34 66 61 34 68 14 62 62 24 44 62 74 44 44 60 68 65 68 24 84 60 63 84 65
49 43 39 29 99 41 44 42 29 29 79 59 79 49 69 79 41 44 48 48 89 39 59 69 47 59 41 48 44 46 29 44 44 41 39 59 41 29 39 45 59 19 89 39 49
94 92 99 91 14 24 44 91 92 92 96 91 54 95 90 93 14 14 44 04 95 95 93 98 34 90 34 14 24 44 93 74 44 44 93 92 24 93 98 84 91 96 91 93 84 93
43 23 41 83 44 42 03 13 33 49 93 33 41 44 48 48 83 93 53 47 03 41 03 33 48 44 46 93 33 44 44 41 13 93 41 93 45 63 93 13 53 49 93
32 72 39 92 32 42 82 92 82 92 22 31 33 38 33 36 39 30 34 34 12 12 22 33 36 62 62 22 62 33 30 39 31 92 52 39 39 31 35 31 02 22 36
27 23 29 24 29 29 28 28 87 22 26 67 77 57 67 57 17 47 27 77 22 21 17 20 07 22 24 29 87 17 24 29 22 28
72 92 32 42 82 92 82 79 92 22 77 79 70 75 76 79 76 12 77 71 12 22 70 62 78 62 22 62 74 70 92 52 02 22
23 29 83 24 29 29 28 28 22 26 03 13 33 93 33 83 93 53 03 27 22 21 03 33 20 22 24 29 93 33 13 93 24 29 93 63 93 13 53 22 28 93
39 29 99 32 29 29 79 59 79 31 33 38 49 69 79 33 36 89 39 59 30 69 34 59 34 33 36 29 33 30 39 31 59 29 39 59 19 89 39 31 35 31 49 36
92 99 91 32 42 91 82 92 82 92 22 96 91 95 90 93 95 95 93 98 90 12 12 22 62 62 22 62 93 93 92 52 93 98 91 96 91 93 02 22 93
29 24 29 29 28 28 79 22 26 59 79 49 69 79 89 39 59 69 59 27 22 21 20 22 24 29 39 59 24 29 39 59 19 89 39 22 28 49
99 29 91 29 92 79 92 59 96 79 91 49 95 69 90 79 93 89 95 39 95 59 93 69 98 59 90 29 93 39 93 59 92 29 93 39 98 59 91 19 96 89 91 39 93 49 93
91 41 91 92 92 96 91 31 01 95 90 01 93 01 41 95 51 95 93 98 61 90 41 71 21 51 93 41 81 93 31 92 41 93 98 91 96 01 91 93 31 31 93
14 18 24 44 18 10 10 13 54 17 14 14 44 04 18 34 15 34 12 12 17 14 24 44 74 44 44 16 13 17 24 15 84 19 18 16 13 10 84
41 44 42 91 91 31 01 49 01 01 41 44 48 48 51 47 61 41 71 21 51 48 44 46 44 44 41 81 31 41 45 91 01 91 31 31 49
18 18 28 28 10 10 13 38 17 14 14 48 48 18 98 15 12 12 17 68 58 14 48 88 78 08 16 68 88 88 13 17 68 88 15 98 19 18 16 13 10 28 58
83 82 82 87 03 13 33 86 93 33 86 89 83 93 85 53 03 03 33 85 85 88 86 86 93 33 87 88 88 81 13 93 88 85 93 84 89 63 93 13 53 84 93
32 42 82 92 82 92 22 31 33 38 33 36 39 30 34 34 12 12 22 33 36 62 62 22 62 33 30 39 31 92 52 39 39 31 35 31 02 22 36
24 29 29 28 28 22 26 54 14 14 44 04 34 34 27 22 21 14 20 22 24 44 29 74 44 44 24 29 84 22 28 84
44 54 49 14 41 14 44 48 04 48 34 47 34 41 14 48 24 44 46 74 44 44 41 24 41 84 45 84 49
42 82 92 82 92 22 49 41 44 48 48 47 41 12 12 22 48 62 62 22 44 46 62 44 44 41 92 41 52 45 02 22 49
29 29 28 28 79 22 26 59 79 49 69 79 89 39 59 69 59 27 22 21 20 22 24 29 39 59 24 29 39 59 19 89 39 22 28 49
91 92 92 96 91 31 01 95 90 01 93 01 41 95 51 95 93 98 61 90 41 71 21 51 93 41 81 93 31 92 41 93 98 91 96 01 91 93 31 31 93
18 28 28 10 10 13 38 17 14 14 48 48 18 98 15 12 12 17 68 58 14 48 88 78 08 16 68 88 88 13 17 68 88 15 98 19 18 16 13 10 28 58
82 92 82 87 92 22 86 86 89 83 85 12 12 22 85 85 88 86 62 86 62 22 62 87 88 88 81 88 85 92 52 84 89 02 22 84
29 28 28 79 22 26 59 79 49 69 79 89 39 59 69 59 27 22 21 20 22 24 29 39 59 24 29 39 59 19 89 39 22 28 49
92 82 92 22 96 91 95 90 93 95 95 93 98 90 12 12 22 62 62 22 62 93 93 92 52 93 98 91 96 91 93 02 22 93
28 28 22 26 38 48 48 18 98 27 22 21 68 58 48 88 20 78 22 24 29 08 68 88 88 68 88 24 29 98 18 22 28 58
82 87 92 22 86 86 89 83 85 12 12 22 85 85 88 86 62 86 62 22 62 87 88 88 81 88 85 92 52 84 89 02 22 84
28 22 26 38 48 48 18 98 27 22 21 68 58 48 88 20 78 22 24 29 08 68 88 88 68 88 24 29 98 18 22 28 58
87 67 77 57 86 67 57 17 86 89 83 85 47 27 77 17 85 85 88 86 07 86 87 88 88 81 17 88 85 84 89 84
79 59 77 79 70 75 49 76 69 79 89 39 59 69 76 59 77 71 70 78 29 74 39 70 59 29 39 59 19 89 39 49
92 96 91 95 90 93 95 95 93 98 90 12 12 22 62 62 22 62 93 93 92 52 93 98 91 96 91 93 02 22 93
22 12 27 12 22 21 62 20 62 22 24 62 29 92 24 52 29 02 22 28
26 06 66 96 86 76 36 86 06 06 76 66 27 22 21 36 86 20 86 22 24 46 29 16 06 06 56 24 29 96 16 22 28 36
60 66 65 67 10 10 70 67 69 90 60 60 30 00 60 69 66 61 90 70 68 62 20 62 62 30 00 60 68 70 00 65 68 60 63 10 00 65
