09066 15096 50966 09664 99276 09159 04756 19686 39864 69106 91064 01536 69003 00396 03962 03022 29260 03216 39769 
90669 20019 50966 09664 96649 43269 32699 92760 96863 98646 75469 91064 10644 45469 90039 92603 30839 39769 97697 
06695 57495 00191 09664 96649 66492 32699 26992 18895 07975 54691 06440 53645 54690 00396 16585 08397 97697 
66955 74957 66492 64928 26992 69927 94925 43755 50915 88955 07975 46910 36454 46900 16585 65854 61785 76970 
69557 49577 69927 49254 37550 09159 91597 89558 64677 67707 60797 79754 69106 64546 69003 65854 69707 
95574 95775 92834 99276 92114 21544 20594 92543 75509 91597 15972 95588 47564 01534 97546 91064 15364 96204 03374 65854 
55749 57750 75029 96649 15440 05949 75509 55091 59722 55881 75641 56419 15343 75469 53645 45469 33748 58548 39769 
57495 50293 66492 54407 59492 54375 55091 50915 18895 30475 56419 53433 07975 54691 53645 54690 37489 97697 
74957 93987 64928 69927 54407 94925 88955 64677 73047 04756 44607 79754 70337 74898 48987 14417 44177 76970 
49577 39878 49283 69927 99276 44071 49254 91597 89558 46467 64677 46770 47564 44607 46079 48987 89873 32677 41617 44177 41773 69707 
95775 98786 99276 92760 91215 94925 54375 43755 15972 95588 46770 30475 07975 98732 26772 61785 41773 
57750 91150 92760 43755 37550 59722 46770 67707 08730 04756 47110 79754 54690 52960 28450 67728 17854 54220 87220 17730 
77502 87862 11509 27601 07112 37550 75509 97222 67707 77073 07332 73322 87304 47564 71101 97546 60302 84502 77282 78542 31102 72201 77308 
75029 78620 20019 15096 76011 47019 71120 12059 05949 75509 55091 72221 77073 73322 73047 75641 46079 75469 45469 90039 31529 03022 45022 72825 82529 85422 11028 73083 
50293 00191 50966 49283 70191 20594 59492 55091 50915 70733 20873 10153 53433 60797 54691 40153 54690 00396 04283 15296 30228 50223 02233 25292 54220 42203 20313 10287 20183 
02939 01911 92834 32699 01119 01912 12059 05949 09159 07332 08730 01534 44239 07975 01536 90039 03962 42831 52960 02284 02233 22332 82529 52926 22031 03131 02872 01838 30839 
29398 28343 26992 20594 59492 22218 22188 89558 42398 00396 20428 28316 74898 29603 22332 23326 25292 29260 21658 20313 22018 77308 08397 
93987 69927 94925 91597 95588 22087 73047 23986 03962 83167 48987 33267 10287 73083 83976 97697 
39878 99276 89558 32208 20873 30475 39864 39620 31670 33748 74898 89873 30228 32677 41828 16178 02872 01838 30839 39769 
98786 99276 92760 95588 08730 04756 19686 23986 98646 97546 28316 48987 98732 48246 18284 28416 61785 28722 18384 
87862 83432 07112 97222 07332 87304 47564 96863 39864 86464 03962 83167 89873 87323 84502 77282 85482 82464 82841 84161 17854 85422 02872 87220 83841 
78620 71120 72221 73322 33220 08730 75641 68634 98646 54690 39620 31670 28450 72825 78542 54220 28722 87220 76970 
86200 11205 46770 33220 32208 87304 86347 86464 46910 06440 46900 96204 16703 96030 84502 29260 54220 42203 87220 72201 76970 
62001 27601 76011 60111 14701 44071 12059 55091 72221 67707 32208 22087 63471 71101 69106 64401 69003 62042 42831 67033 60302 92603 60321 82841 42203 22031 72201 22018 69707 
20019 76011 60111 01119 47019 40711 12059 20594 50915 22218 21889 22087 20873 56419 11015 46079 44015 90039 20428 28316 26032 28416 22031 20313 22018 20183 30839 
00191 60111 01119 11192 70191 19121 40711 07112 20594 55091 09159 64196 71101 10153 60797 54691 40153 00396 60321 84161 03131 20183 08397 
01911 76011 60111 01119 11921 19211 01912 91215 40711 07112 05949 50915 41968 34711 71101 11015 01534 07975 46910 01536 03962 03216 41617 03131 31311 01838 41441 
19115 60111 01119 11192 19211 92114 19121 91215 12154 07112 11205 50915 09159 18895 19686 47110 11015 10153 69106 44015 32315 32165 16585 16178 13110 14417 
91150 92760 01119 11192 92114 21147 11470 91215 12154 71120 37550 09159 91597 47110 71101 10153 91064 40153 31670 23152 96030 28450 21658 13110 31102 
11509 01119 11192 11921 11470 14701 21544 11205 12059 75509 91597 21889 71101 11015 01534 01536 16703 31529 84502 82529 16585 31102 11028 
15096 11192 15440 12059 55091 15972 18895 64196 19686 11015 15343 15364 00396 15296 45022 25292 11028 
50966 50915 41968 23986 00396 03962 52960 50223 52926 83976 
09664 49254 09159 14464 47564 19686 68634 01534 39864 86464 64644 79754 91064 10644 15364 03962 39620 03374 29603 02284 29260 82464 39769 
96649 32699 05949 92543 44646 75641 56419 96863 86347 98646 64644 46446 46079 97546 10644 06440 53645 90039 96204 96030 92603 24641 97697 
66492 83432 26992 11192 59492 46467 56419 64196 63471 34442 86464 46446 64460 60797 06440 64401 36454 62042 60302 26772 25292 26032 85482 46418 64182 85422 
64928 34326 69927 11921 94925 64677 64196 41968 44423 64644 64460 64401 64546 20428 74898 30228 67728 52926 60321 54824 64182 41828 54220 11028 
49283 43269 99276 19211 49254 19686 44423 44239 40153 69003 04283 48987 89873 29603 02284 50223 02233 77282 29260 48246 18284 42203 10287 20183 41773 73083 
92834 92760 92114 12154 92543 58814 96863 68634 01534 34334 39864 91064 90039 96204 42831 98732 96030 02284 22845 02233 22332 72825 92603 65854 54824 82464 82841 17854 22031 02872 01838 30839 
28343 21147 21544 92543 88144 20873 86347 15343 43344 98646 28316 87323 29603 22845 28450 22332 23326 28252 58548 48246 24641 28416 78542 20313 28722 20183 18384 08397 
83432 59492 25437 81446 07332 73322 63471 53433 33444 34442 86464 03962 83167 98732 73231 23152 03022 84502 22332 26032 85482 82464 85422 03131 83841 83976 
34326 94925 54375 44646 73322 33220 04756 64196 34711 34334 34442 44423 64546 00396 39620 28316 87323 32315 31529 30228 23326 52926 60321 54824 54220 31311 
43269 47019 49254 43755 46467 33220 47564 41968 43344 44239 46079 75469 45469 03962 83167 73231 33267 29260 03216 48246 42203 39769 
32699 12059 32208 42398 54691 54690 39620 31670 37489 32315 31529 32677 82529 92603 32165 30839 39769 97697 
26992 11192 01912 20594 59492 15972 23986 46910 46900 03962 23152 22332 26772 28252 25292 26032 28722 76970 
69927 11921 19121 94925 59722 64677 67707 60797 69106 69003 39620 48987 67728 52926 60321 69707 
99276 19211 91215 49254 97222 19686 98646 97546 69106 96204 89873 15296 29260 03216 48246 83976 
92760 92114 92543 46770 08730 96863 64460 91064 98732 52960 96030 29260 92603 32165 82464 17730 39769 
27601 14701 67707 87304 75641 71101 44607 54691 64401 29603 92603 21658 24641 22031 72201 77308 97697 
76011 19211 47019 70191 44071 40711 55091 72221 77073 73047 75641 56419 34711 71101 11015 46079 46910 44015 73231 96030 26032 46418 22031 31311 72201 22018 73083 76970 
60111 92114 70191 19121 40711 07112 50915 64196 63471 34711 47110 71101 10153 60797 69106 64401 40153 60302 60321 64182 84161 20313 03131 31311 13110 20183 
01119 21147 47019 01912 91215 07112 71120 05949 09159 21889 56419 47110 71101 11015 01534 01536 31529 03216 41617 03131 31311 13110 31102 01838 
11192 11470 70191 01912 19121 12154 07112 71120 11205 59492 91597 15972 18895 64196 71101 11015 10153 23152 15296 25292 64182 16178 13110 31102 11028 
11921 14701 01912 19121 71120 11205 94925 15972 72221 41968 71101 11015 31529 52926 60321 41828 31311 11028 41441 
19211 19121 91215 40711 11205 49254 72221 22218 19686 34711 11015 73231 15296 29260 03216 18284 31311 13110 10287 72201 14417 
92114 91215 12154 07112 92543 22218 22188 58814 88144 47110 91064 96204 32315 02284 92603 32165 82464 13110 22018 38414 84144 
21147 21544 71120 25437 91597 22188 21889 88144 81446 22087 73047 86347 71101 83167 23152 22845 21658 24641 41617 31102 20183 84144 41441 44177 
11470 15440 71120 11205 15972 81446 14464 46770 30475 63471 11015 64460 06440 31670 28450 16178 13110 11028 41441 14417 41773 17730 76970 
14701 54407 44071 40711 11205 14464 67707 04756 34711 71101 44607 54691 64401 16703 84502 24641 84161 72201 14417 17730 69707 
47019 44071 40711 07112 12059 77073 47564 56419 47110 11015 44239 46079 46910 44015 45469 90039 67033 37489 45022 46418 41617 22018 
70191 40711 71120 20594 55091 72221 70733 75641 64196 71101 10153 60797 54691 40153 00396 70337 74898 73231 60321 84161 03131 72201 20183 
01912 07112 05949 50915 15972 07332 41968 11015 01534 07975 46910 01536 03962 03022 03216 41617 31311 31102 02872 01838 
19121 71120 09159 59722 72221 19686 71101 10153 69106 39620 60321 84161 16178 03131 13110 11028 
91215 11205 94925 50915 91597 97222 22218 11015 91064 44015 96204 32315 03216 41617 61785 31311 
12154 12059 49254 09159 22188 88144 14464 10153 79754 10644 40153 15364 36454 23152 02284 32165 65854 82464 18284 16178 17854 13110 18384 84144 
21544 20594 92543 91597 21889 88144 81446 47564 01534 43344 33444 64644 97546 91064 10644 01536 64546 31529 22845 21658 58548 24641 78542 84144 41441 
15440 05949 25437 15972 81446 14464 75641 15343 33444 34442 46446 64460 75469 10644 06440 15364 45469 15296 28450 85482 85422 13110 41441 14417 17730 
54407 59492 25437 54375 14464 46467 64677 67707 56419 53433 34442 44423 64460 44607 54691 64401 54690 84502 54824 54220 14417 44177 69707 
44071 54375 55091 44646 64677 46770 77073 63471 34711 44423 44239 44607 46079 54691 64401 44015 42831 45022 24641 84161 22031 41441 44177 41773 
40711 43755 50915 46770 70733 34711 47110 60797 46910 44015 40153 42831 60321 46418 41617 20313 31311 41441 41773 
07112 09159 97222 07332 47110 07975 03962 23152 03022 77282 03216 64182 03131 13110 31102 02872 
71120 72221 73322 33220 47110 71101 39620 31670 31529 72825 41828 54220 13110 31102 11028 87220 76970 
11205 18895 32208 71101 11015 96204 16703 15296 16585 18284 61785 42203 31102 11028 10287 72201 
12059 09159 22087 11015 10153 46079 90039 62042 82529 17854 22031 11028 22018 
20594 91597 20873 47564 01534 60797 10644 00396 20428 25292 20313 20183 
05949 75509 09159 15972 75641 15343 07975 75469 06440 45469 03962 
59492 55091 59722 56419 53433 34442 54691 54690 25292 85482 85422 
94925 50915 97222 88955 44423 07975 44015 72825 52926 54824 54220 
49254 09159 89558 47564 43344 44239 39864 79754 40153 36454 96204 02284 28252 29260 65854 48246 18284 17854 42203 
92543 91597 95588 96863 15343 98646 97546 64546 62042 22845 02233 82529 92603 58548 82841 78542 42203 
25437 46467 22087 53433 75469 45469 20428 70337 28450 22332 25292 26032 85482 28416 85422 22031 14417 
54375 50915 64677 30475 34334 07975 54691 44015 53645 54690 03374 32315 54824 54220 44177 
43755 88955 46770 04756 43344 79754 44015 40153 53645 33748 23152 61785 41773 
37550 89558 33220 47564 47110 97546 36454 39620 31670 37489 31529 28450 17854 87220 17730 
75509 95588 75641 71101 75469 45469 31529 84502 82529 78542 72201 77308 
55091 55881 75641 54691 54690 15296 45022 25292 22031 
50915 88955 58814 30475 56419 11015 07975 46910 44015 53645 32315 52960 50223 52926 20313 
09159 89558 04756 10153 79754 69106 40153 23152 03131 39769 
91597 95588 01534 60797 97546 91064 01536 31529 41617 08397 97697 
15972 15343 07975 15364 03962 15296 45022 26772 25292 85482 16178 85422 02872 83976 76970 
59722 73322 79754 39620 98732 03022 45022 50223 26772 67728 52926 54824 85422 54220 28722 39769 69707 
97222 07332 73322 33220 97546 96204 98732 87323 03022 30228 45022 50223 67728 77282 28252 25292 85422 54220 28722 87220 97697 
72221 73322 33220 32208 75641 71101 42831 73231 30228 02284 50223 02233 77282 72825 82529 52926 60321 82841 54220 42203 22031 87220 72201 
22218 32208 22087 42398 20428 28316 32315 30228 02284 22845 02233 22332 28252 25292 29260 03216 21658 46418 28416 42203 22031 20313 72201 22018 
22188 95588 32208 22087 42398 23986 20428 23152 02284 22845 22332 32165 21658 64182 16178 22031 22018 20183 
21889 55881 22087 20873 23986 37489 31529 22845 21658 41828 61785 20183 01838 30839 
18895 58814 11015 74898 15296 22845 72825 16585 18284 17854 18384 08397 
88955 88144 07975 48987 28450 28252 83976 
89558 79754 89873 84502 82529 21658 58548 
95588 97546 16585 58548 85482 
55881 75641 54691 42831 65854 85482 54824 82841 83841 
58814 56419 68634 39864 28316 65854 58548 54824 18284 28416 17854 18384 38414 
88144 87304 68634 86347 43344 33444 98646 86464 64644 10644 83167 58548 48246 82464 18284 82841 84161 78542 18384 83841 38414 84144 
81446 86347 33444 34442 98646 86464 46446 97546 06440 01536 64546 85482 48246 82464 82841 28416 85422 83841 84144 41441 83976 
14464 47564 34334 33444 34442 44423 39864 86464 64644 64460 75469 91064 10644 64401 15364 36454 45469 54824 82464 18284 84161 17854 18384 38414 84144 14417 
44646 04756 75641 64196 19686 43344 34442 44423 44239 98646 64644 46446 44607 97546 54691 10644 44015 53645 64546 54690 48246 24641 41617 84144 41441 44177 
46467 47564 56419 41968 96863 86347 44423 86464 46446 64460 44607 46079 75469 46910 06440 36454 45469 46900 83167 48987 33267 82464 46418 41617 41441 14417 44177 
64677 64196 68634 63471 64644 64460 44607 60797 54691 64401 64546 54690 31670 32677 24641 64182 41617 14417 44177 97697 69707 
46770 08730 47110 46446 46079 46910 06440 46900 31670 16703 96030 26772 46418 16178 44177 41773 17730 76970 
67707 87304 44607 60797 69106 64401 69003 16703 67033 60302 67728 61785 17730 77308 97697 69707 
77073 20873 73047 46079 07975 69003 67033 89873 87323 77282 41773 77308 73083 76970 
70733 20873 08730 10153 53433 60797 79754 40153 90039 16703 67033 70337 98732 73231 50223 02233 20313 20183 41773 17730 73083 30839 
07332 08730 87304 01534 34334 07975 01536 00396 03962 67033 70337 03374 98732 87323 60302 03022 02233 22332 77282 26032 03131 02872 01838 17730 77308 08397 
73322 73047 43344 03962 70337 03374 87323 73231 23152 60302 03022 45022 22332 23326 77282 72825 60321 78542 85422 28722 77308 73083 
33220 33444 39620 31670 33748 73231 31529 03022 30228 50223 23326 33267 29260 03216 54220 13110 87220 
32208 42398 96204 33748 32315 30228 02284 02233 33267 32677 92603 32165 42203 31102 72201 22018 77308 
22087 23986 62042 48987 02284 22845 22332 32677 26032 22031 10287 22018 20183 73083 
20873 96863 10153 40153 20428 89873 29603 22845 50223 26772 20313 02872 20183 41773 30839 
08730 68634 01534 06440 01536 98732 96030 28450 02233 03131 28722 01838 17730 08397 
87304 86347 34334 43344 86464 15364 96204 03374 87323 60302 84502 82464 17854 87220 18384 84144 77308 
73047 86347 43344 33444 53645 62042 83167 70337 33748 73231 03022 33267 78542 83841 73083 
30475 63471 33444 34442 07975 36454 20428 31670 37489 32315 30228 32677 32165 38414 30839 
04756 34711 79754 01536 64546 00396 04283 03216 
47564 47110 01534 43344 39864 86464 97546 91064 15364 45469 82464 17854 
75641 71101 15343 98646 64644 75469 54691 10644 53645 73231 24641 82841 78542 72201 83841 41441 
56419 53433 86464 46446 46079 75469 46910 06440 36454 45469 37489 46418 28416 38414 14417 
64196 64644 64460 60797 54691 69106 64401 64546 54690 00396 74898 15296 64182 84161 84144 44177 
41968 42398 46910 91064 45469 46900 03962 48987 52960 21658 46418 41828 41617 11028 01838 41441 41773 
19686 23986 98646 69106 10644 39620 15296 29603 16585 18284 10287 18384 
96863 39864 86464 91064 96204 16703 89873 96030 92603 
68634 01534 34334 98646 64644 10644 67033 98732 65854 18284 18384 38414 
86347 15343 43344 86464 46446 06440 83167 70337 87323 82841 83841 84144 08397 
63471 53433 33444 64460 64401 03374 73231 60321 03131 83841 41441 83976 
34711 34334 34442 54691 64401 44015 33748 32315 24641 84161 31311 38414 14417 39769 
47110 46910 44015 40153 46900 46418 41617 13110 87220 44177 17730 
71101 69106 64401 73231 84161 03131 31311 31102 72201 41441 77308 
11015 91064 44015 32315 16585 41617 61785 31311 13110 11028 22018 14417 
10153 10644 40153 16703 23152 50223 16178 17854 20313 13110 10287 20183 
01534 91064 01536 03374 31529 02284 02233 03131 01838 
15343 10644 15364 16703 87323 15296 20313 18384 
53433 44423 53645 67033 73231 50223 02233 03131 73083 
34334 44239 39864 64644 15364 36454 70337 03374 32315 22332 54824 31311 18384 38414 84144 30839 
43344 42398 64644 46446 10644 15364 53645 03374 33748 23326 48246 18384 83841 84144 41441 
33444 39864 86464 64644 46446 10644 06440 53645 36454 03374 33748 37489 33267 82464 83841 38414 84144 41441 
34442 64644 46446 64460 06440 64401 36454 64546 62042 33748 37489 84502 85482 24641 64182 78542 85422 31102 38414 84144 41441 14417 
44423 46446 64460 44607 64401 44015 40153 45469 20428 04283 87323 45022 50223 54824 46418 41828 85422 54220 42203 41441 14417 44177 41773 
44239 44607 46079 44015 45469 90039 04283 42831 73231 02233 48246 54220 42203 44177 30839 
42398 00396 42831 74898 32315 22332 46418 41828 42203 22018 77308 08397 
23986 03962 28316 48987 23152 23326 52926 03216 28416 20183 73083 83976 
39864 79754 91064 15364 36454 39620 89873 33267 29260 32165 65854 54824 82464 17854 38414 30839 39769 
98646 97546 10644 53645 64546 28316 98732 92603 58548 48246 24641 28416 78542 97697 
86464 75469 91064 06440 15364 36454 45469 96204 83167 85482 82464 46418 84161 85422 38414 84144 
64644 54691 10644 64401 53645 64546 54690 62042 65854 54824 24641 64182 84144 
46446 97546 46910 06440 36454 64546 45469 46900 48246 46418 28416 41441 
64460 75469 06440 64401 64546 45469 54690 52960 28450 29260 82464 64182 84161 54220 14417 
44607 54691 64401 44015 54690 46900 48987 29603 84502 32677 92603 24641 41617 42203 14417 44177 97697 69707 
46079 46910 44015 45469 46900 90039 96030 45022 26772 26032 46418 16178 44177 41773 76970 
60797 00396 70337 60302 67728 60321 61785 10287 08397 97697 69707 
07975 03962 03374 02872 83976 76970 
79754 36454 65854 17854 39769 69707 
97546 01536 64546 58548 48246 78542 97697 
75469 15364 45469 37489 85482 82464 85422 39769 
54691 64401 53645 54690 74898 54824 24641 84161 54220 97697 
46910 44015 46900 48987 52960 96030 46418 41617 13110 76970 
69106 64546 69003 29603 60302 64182 31102 69707 
91064 15364 90039 96204 96030 82464 11028 
10644 15364 53645 24641 18284 17854 10287 18384 84144 
06440 36454 46900 96030 28450 46418 41441 76970 
64401 64546 69003 60302 84502 60321 24641 64182 84161 72201 41441 14417 69707 
44015 32315 45022 46418 41617 22018 14417 44177 
40153 23152 50223 42203 20313 20183 44177 41773 
01536 00396 31529 02233 03216 03131 01838 
15364 03374 15296 65854 82464 18284 17854 18384 
53645 33748 22845 58548 24641 83841 
36454 96204 37489 28450 65854 82464 46418 17854 38414 
64546 62042 84502 58548 48246 24641 64182 78542 84144 
45469 37489 45022 85482 82464 46418 85422 41441 39769 
54690 39620 31670 74898 52960 54824 24641 54220 97697 
46900 96204 16703 48987 52960 96030 46418 42203 76970 
69003 62042 16703 67033 89873 29603 60302 92603 42203 73083 69707 
90039 67033 70337 98732 96030 26032 22031 30839 
00396 28316 70337 03374 15296 60302 23326 60321 03216 20313 08397 
03962 83167 03374 23152 52960 03022 33267 03216 03131 02872 83976 
39620 31670 31529 29603 30228 32677 29260 54220 87220 39769 
96204 16703 96030 02284 92603 18284 42203 72201 
62042 67033 60302 03022 22845 45022 22332 26032 64182 82841 78542 22031 02872 22018 
20428 30228 28450 50223 23326 67728 60321 21658 46418 41828 28416 85422 20313 11028 28722 22018 20183 
04283 02284 50223 02233 77282 03216 64182 18284 54220 42203 10287 20183 73083 
42831 73231 22845 02233 22332 72825 41828 82841 42203 22031 03131 02872 72201 01838 83841 41441 30839 
28316 32315 28450 22332 23326 28252 03216 48246 28416 20313 31311 28722 22018 18384 38414 08397 
83167 23152 33267 32165 82464 84161 03131 13110 83841 84144 44177 83976 
31670 31529 32677 21658 41617 31311 31102 41773 76970 
16703 29603 26772 92603 16585 16178 42203 41773 17730 69707 
67033 87323 96030 02233 67728 26032 22031 17730 73083 
70337 73231 60302 22332 60321 20313 10287 77308 30839 08397 
03374 03022 02284 23326 03216 03131 02872 18384 08397 83976 
33748 30228 33267 67728 58548 83841 39769 
37489 31529 77282 85482 38414 30839 39769 
74898 72825 54824 41828 01838 77308 
48987 48246 18284 41617 10287 18384 44177 08397 
89873 29603 82841 02872 83841 41773 83976 
98732 96030 22332 26772 28252 26032 78542 28722 17730 
87323 50223 23326 67728 82529 60321 85422 20313 87220 77308 
73231 02233 33267 77282 03216 22031 03131 72201 83841 73083 
32315 22845 22332 32677 72825 32165 20313 31311 22018 38414 
23152 03022 28450 22332 23326 26772 28252 25292 26032 21658 64182 03131 13110 31102 28722 20183 
31529 30228 82529 41828 31311 31102 11028 30839 39769 
15296 25292 03216 48246 18284 10287 
52960 52926 29260 32165 82464 54220 76970 
29603 29260 92603 21658 24641 42203 20313 20183 69707 
96030 26032 22031 17730 76970 
60302 84502 22332 60321 64182 20313 31102 77308 69707 
03022 45022 23326 26032 03216 85422 03131 11028 02872 28722 73083 
30228 50223 33267 67728 60321 41828 54220 11028 10287 87220 30839 
02284 02233 77282 03216 82464 18284 42203 10287 02872 72201 18384 
22845 22332 72825 32165 24641 82841 22031 02872 22018 83841 
28450 28252 29260 21658 28416 28722 38414 
84502 82529 85482 64182 84161 78542 85422 31102 84144 
45022 25292 26032 85482 41828 85422 11028 28722 
50223 52926 60321 54824 54220 42203 20313 10287 87220 20183 
02233 92603 03216 42203 22031 03131 02872 72201 01838 
22332 28252 25292 26032 22031 20313 02872 28722 22018 
23326 52926 60321 03216 28416 20313 28722 83976 
33267 29260 03216 32165 10287 39769 
32677 92603 32165 41617 02872 44177 97697 
26772 25292 26032 16178 02872 28722 41773 76970 
67728 60321 41828 61785 11028 28722 87220 17730 77308 69707 
77282 85482 64182 18284 78542 10287 87220 72201 77308 73083 
72825 32165 54824 41828 82841 02872 72201 
28252 26032 21658 48246 18284 28416 78542 28722 
82529 82464 82841 85422 87220 
25292 85482 85422 28722 
52926 54824 54220 83976 
29260 54220 87220 39769 
92603 42203 72201 97697 
26032 22031 28722 22018 
60321 20313 31311 
03216 48246 28416 03131 13110 83976 
32165 82464 84161 31102 39769 
21658 24641 41828 41617 11028 22018 01838 
16585 18284 16178 61785 10287 18384 
65854 17854 
58548 78542 
85482 64182 85422 
54824 41828 17854 54220 84144 
48246 18284 28416 78542 42203 41441 
82464 82841 84161 85422 38414 84144 
24641 82841 84161 22031 83841 84144 41441 
46418 28416 41617 16178 22018 38414 41441 14417 
64182 84161 61785 31102 20183 84144 44177 
41828 41617 11028 01838 41441 41773 
18284 17854 10287 18384 38414 
82841 22031 02872 72201 83841 84144 41441 
28416 20313 28722 22018 38414 14417 
84161 03131 83841 84144 44177 
41617 31311 41441 14417 44177 41773 97697 
16178 13110 11028 44177 76970 
61785 41773 69707 
17854 18384 17730 
78542 28722 
85422 28722 87220 
54220 87220 
42203 72201 41773 
22031 72201 22018 
20313 22018 20183 
03131 01838 83841 
31311 38414 41441 
13110 14417 17730 
11028 22018 01838 
10287 20183 18384 14417 
02872 01838 
87220 17730 
72201 77308 
20183 73083 
01838 30839 
18384 08397 
83841 83976 
<------------Next-300-Signals------------>
54876 83873 25879 54520 10878 54058 04756 51850 14370 58076 39826 34171 44673 44416 64973 52272 55386 53862 52471 24716 53773 54023 34884 64873 24871 
48761 38737 38271 58798 08783 20721 62731 47567 43707 08621 80763 98264 43601 41712 46731 44164 49730 27161 18331 47160 16771 08811 35561 48845 48730 48712 
87612 87373 37382 82712 87988 98812 87837 07213 27317 89362 86212 07639 82643 36012 41712 67314 73012 71618 83316 31692 86852 86202 13512 97452 67713 88119 57092 55612 87306 30632 48712 87125 12512 
76129 73827 27125 88125 53029 02929 72130 73170 70789 62125 76398 60123 17124 73144 30127 16183 33169 16928 35126 36939 74524 77133 71339 88119 70926 26279 79069 56124 06324 87125 
61298 71258 58798 81254 57228 30292 29292 36208 21257 76398 01234 71244 01271 71618 61833 31692 69286 51264 69397 81193 62790 61242 63244 44248 71251 
12983 12587 87988 12545 72281 08783 40583 02929 92920 62086 12574 63982 82643 12341 12446 64973 12716 16183 16928 42433 12643 11935 19353 12420 42487 12512 
29838 73738 25879 79881 22810 28108 10878 87837 05838 29292 29207 20862 39826 26436 49730 61833 92868 05538 24331 26436 39088 27348 24871 
98387 37382 12587 98812 81087 08783 78373 58389 27317 18507 98264 97301 18331 28685 55386 69397 90881 93537 35377 92627 46487 42487 
83873 73827 25879 10878 87837 78373 83735 83897 89753 06273 73170 75673 85071 07893 80763 82643 44673 64973 61833 83316 86852 80553 53862 43313 43693 93974 81193 53773 05273 64873 73063 24871 
38737 38271 58798 08783 87837 83735 38975 30627 62731 31704 56735 18507 71437 43707 78936 46731 49730 30127 18331 38620 33135 36939 39745 93537 35377 37735 52734 48730 30632 48712 
87373 87988 87837 78373 37354 89753 07213 06273 27317 75673 67351 85071 07143 14370 37078 07893 89362 74343 80763 82643 44673 67314 64973 97301 83316 80553 43313 67713 77133 81193 19353 35377 53773 77355 05273 27348 64873 87306 87125 
73738 71258 58798 83735 73540 05838 72130 62731 73170 56735 73518 71437 43707 70789 78936 43432 76398 46731 73144 49730 73012 71618 72458 05538 33135 77133 71339 33908 93537 53773 37735 73557 52734 73488 48730 73063 
37382 87988 37354 58389 75302 30292 27317 67351 35185 37078 89362 34324 63982 36012 67314 97301 31692 55386 31351 97452 39088 35377 37735 77355 57092 27348 34884 87306 30632 32442 
73827 79881 87837 73540 83897 53029 30627 73170 73518 71437 43707 93620 05807 39826 23417 73144 73012 30127 85227 53862 74524 93537 73557 70926 92627 20527 73488 73063 
38271 72281 78373 38975 30292 06273 85071 37078 36208 08621 58076 98264 34171 01271 18331 52272 38620 31351 52471 16771 08811 35377 35570 26279 35561 05273 24871 71251 
82712 98812 05722 22810 83735 89753 92072 62731 50714 89362 86212 80763 82643 36012 41712 73012 12716 83316 86852 52272 22724 86202 13512 24716 67713 88119 62790 55612 42052 52734 32442 48712 12512 
27125 88125 57228 28108 20721 27317 35185 07143 62125 24505 60123 17124 30127 27161 28685 22724 27245 62025 33135 35126 47160 77133 37735 77355 27906 64625 56124 24205 20527 27348 24424 87125 
71258 81254 57228 72281 54058 73518 51850 71437 36208 21257 45058 76398 01234 71244 01271 71618 72458 20259 31351 51264 71601 71339 77355 73557 46254 61242 73488 44248 71251 
12587 12545 52057 72281 81087 40583 17047 47567 18507 62086 12574 50580 12341 12446 16497 12716 16183 24580 02594 13512 12643 10167 93537 73557 92627 62540 12420 20527 46487 42487 12512 
25879 25452 20572 22810 10878 05838 75673 85071 20862 25743 05807 45805 20259 25942 35377 35570 55709 26279 25402 05273 64873 24871 
58798 57228 28108 08783 54058 58389 56735 50714 58076 76398 58055 53773 55709 57092 62790 52734 48730 48712 
87988 57228 81087 87837 37078 63982 16928 33908 39088 27906 27348 73488 87306 87125 
79881 72281 70789 39826 69286 71601 39088 90881 08811 79069 73488 34884 24871 71251 
98812 22810 92072 20862 86212 98264 36012 41712 73012 92868 86852 68522 53862 13512 97452 90881 08811 88119 55612 48845 48712 12512 
88125 28108 83735 38975 35185 08621 62125 60123 17124 30127 28685 68522 85227 58055 38620 62025 33135 35126 88119 81193 64625 56124 48845 88450 87125 
81254 81087 37354 89753 31704 51850 86212 21257 98264 01234 71244 31444 01271 86852 85227 80553 86202 20259 31351 51264 81193 46254 61242 88450 84504 63244 71251 
12545 73540 17047 18507 62125 12574 43245 24505 82643 12341 12446 14441 12716 27245 62025 02594 13512 12643 39745 11935 62540 02355 12420 48845 32442 12512 
25452 05722 35405 75302 29292 20862 21257 25743 43432 32450 45058 26436 23417 24467 86852 72458 20259 25942 26436 97452 06462 25402 23556 55612 42052 88450 32442 24424 
54520 57228 73540 54058 97530 53029 92920 51850 14370 93620 34324 24505 50580 64360 68522 24580 38620 59424 74524 35570 64625 62540 54023 56124 12420 20527 84504 24424 
45205 35405 75302 29207 35185 43707 36208 43245 24505 45058 05807 43601 85227 27245 45805 86202 45247 55709 46254 25402 40235 24205 05273 48845 45046 44248 
52057 81087 54058 53029 92072 17047 51850 62086 21257 32450 45058 58076 52272 72458 58055 62025 52471 73557 57092 92627 54023 02355 42052 52734 42487 
20572 10878 40583 30292 29292 92072 20721 70475 20862 12574 24505 50580 68522 52272 24580 80553 20259 25942 13512 35570 26279 25402 23556 20527 30632 24871 12512 
05722 08783 05838 75302 02929 20721 04756 08621 25743 05807 41712 68522 85227 22724 05538 25942 35126 55709 09262 06462 25402 55612 05273 06324 48712 
57228 54058 53029 07213 37078 36208 57434 17124 16928 85227 52272 27245 59424 51264 57092 54023 56124 27348 44248 87125 
72281 72130 62731 70789 62086 12341 71244 01271 69286 52272 72458 52471 71601 90881 73488 42487 71251 
22810 92920 72130 27317 51850 20862 32450 23417 12716 92868 22724 24580 24716 60110 08811 62790 62540 12420 24871 12512 
28108 29207 21306 18507 36208 24505 27161 28685 01101 33908 88119 27906 25402 24205 27348 
81087 83897 17047 85071 71437 62086 21257 85227 11016 01677 39088 81193 46487 42487 
10878 05838 70475 14370 37078 20862 12574 16928 92868 10167 16771 90881 64873 24871 
08783 40583 58389 89753 07213 06273 04756 07143 70789 07893 08621 25743 80763 16183 28685 67713 08811 53773 05273 48730 48712 
87837 05838 83897 97530 27317 17047 47567 71437 07893 57434 05807 07639 61833 86852 85227 77133 93537 37735 87306 87125 
78373 58389 38975 75302 06273 73170 70475 75673 14370 78936 74343 58076 76398 44673 64973 18331 43313 77133 71339 19353 35377 53773 77355 05273 64873 73063 
83735 83897 89753 62731 56735 43707 43432 43245 80763 46731 49730 83316 33135 39745 11935 93537 53773 37735 40235 52734 48730 87125 
37354 27317 31704 67351 37078 57434 34324 32450 17124 67314 31444 97301 31351 97452 19353 35377 37735 77355 46254 02355 27348 34884 87306 06324 
73540 97530 72130 73170 73518 93620 74343 43245 50580 71244 73144 73012 24580 13512 74524 13390 93537 73557 35570 62540 23556 73488 73063 63244 
35405 38975 75302 31704 70475 35185 36208 32450 24505 05807 31444 45805 33135 35126 39745 33908 35377 37735 35570 55709 25402 35561 24205 32442 
54058 53029 04756 51850 37078 45058 58076 72458 58055 39088 57092 54023 42052 04648 44248 
40583 47567 70789 50580 80763 60123 44673 16183 24580 80553 42433 43313 43693 90881 40235 20527 46487 42487 
05838 07893 45058 05807 07639 01234 61833 92868 45805 05538 08811 05273 04648 
58389 53029 70789 50580 58076 18331 28685 58055 55386 64369 71339 88119 55709 
83897 43707 07893 05807 23417 16497 83316 86852 85227 53862 43693 69397 13390 81193 93537 73557 
38975 70475 35185 37078 78936 58076 34171 64973 28685 58055 38620 33135 36939 93974 39745 33908 11935 35377 37735 35570 48845 
89753 04756 89362 25743 80763 82643 49730 86852 80553 39745 67713 81193 19353 53773 88450 
97530 92920 72130 47567 93620 57434 50580 07639 49730 97301 24580 05538 97452 47160 77133 93537 37735 35570 90690 62540 48730 
75302 21306 75673 89362 74343 05807 76398 97301 73012 45805 55386 86202 25942 71601 71339 35377 77355 55709 25402 55612 87306 
53029 13062 93620 58076 73012 33169 58055 53862 62025 59424 53773 55709 57092 79069 54023 56124 73063 
30292 30627 36208 20862 86212 36012 30127 31692 52272 86202 20259 57092 09262 90690 40235 61242 30632 32442 
02929 08621 62125 07639 16928 22724 62025 02594 36939 70926 92627 06906 02355 12420 06324 
29292 89362 20862 86212 21257 31692 69286 52272 27245 86202 20259 25942 69397 57092 09262 26279 25402 61242 24205 
92920 72130 93620 62125 32450 16928 92868 22724 38620 62025 93974 70926 92627 62790 90690 62540 12420 
29207 21306 27317 18507 43707 36208 21257 24505 05807 23417 24467 69286 85227 27245 86202 20259 69397 45247 09262 26279 27906 25402 24205 20527 
92072 13062 85071 37078 62086 12574 58076 36012 73012 92868 52272 62025 93974 97452 52471 57092 92627 42052 32442 12512 
20721 30627 62731 50714 70789 20862 08621 25743 80763 60123 46731 30127 27161 22724 20259 24331 24716 16771 90881 70926 20527 24424 24871 
07213 06273 27317 07143 07893 86212 07639 01234 67314 01271 27245 94243 43313 67713 77133 08811 09262 05273 
72130 62731 73170 71437 78936 62125 32450 73144 49730 72458 42433 33135 47160 60110 77133 71339 62790 62540 12420 52734 48730 
21306 27317 31704 21257 24505 26436 97301 83316 55386 24331 31351 26436 24716 71601 01101 11016 71339 27906 06906 25402 23556 24205 27348 87306 
13062 17047 89362 20862 43432 63982 36012 73012 33169 53862 13512 16011 11016 10167 13390 57092 09262 79069 69064 06462 42052 73063 12512 
30627 93620 08621 34324 39826 60123 30127 31692 85227 38620 35126 10167 01677 35377 70926 92627 90690 90646 64625 20527 30632 
06273 75673 07143 07893 36208 86212 01234 44673 64973 01271 16183 52272 86202 94243 01677 16771 53773 09262 26279 06906 06462 46254 05273 64873 06324 
62731 56735 67351 62086 62125 12341 46731 49730 12716 61833 18331 22724 62025 42433 24331 52471 16771 67713 37735 62790 62540 52734 48730 
27317 47567 67351 21257 23417 24467 67314 97301 27161 83316 27245 24331 43313 69397 24716 67713 35377 77355 27906 20527 27348 87306 
73170 75673 73518 14370 93620 34171 73144 73012 33169 33135 93974 47160 60110 77133 13390 53773 73557 35570 73488 73063 
31704 50714 43707 36208 34324 01234 41712 71244 31444 31692 22724 31351 51264 39745 71601 01101 33908 37735 55709 52734 34884 84504 
17047 18507 07143 37078 12341 17124 12446 14441 16497 27245 12643 45247 16011 11016 10167 57092 27348 45046 
70475 71437 70789 72458 52471 77355 70926 40235 73488 50464 
04756 44416 12716 24716 06906 02355 23556 04648 
47567 18507 43707 24467 44164 27161 45247 47160 10167 93537 73557 35561 20527 46487 42487 
75673 85071 25743 74343 82643 44673 64973 71618 12643 43693 71601 01677 77133 35377 53773 35570 55612 05273 64873 73063 
56735 50714 57434 26436 46731 49730 58055 33135 26436 36939 39745 16771 11935 53773 37735 55709 40235 56124 52734 48730 
67351 64360 12341 67314 97301 27161 18331 24331 31351 64369 69397 97452 67713 19353 77355 02355 27348 87306 71251 
73518 76398 23417 73144 73012 71618 83316 72458 05538 43313 13512 74524 33908 93537 73557 23556 73488 73063 12512 
35185 62125 34171 30127 16183 33169 28685 45805 55386 33135 35126 39745 39088 35377 37735 35570 35561 34884 87125 
51850 21257 32450 50580 61833 86852 58055 53862 31351 51264 88450 71251 
18507 43707 12574 24505 05807 16497 18331 68522 13512 10167 93537 73557 20527 84504 12512 
85071 37078 45058 58076 34171 01271 85227 52471 16011 16771 35377 35570 35561 05273 45046 24871 
50714 70789 57434 50580 80763 41712 67314 12716 22724 59424 51264 24716 60110 67713 53773 55709 55612 56124 52734 50464 48712 
07143 07893 25743 74343 07639 82643 60123 17124 73144 27161 16183 27245 94243 12643 47160 01101 67713 77133 81193 05273 27348 04648 87125 
71437 78936 21257 57434 43432 26436 01234 23417 71244 24467 31444 16497 71618 61833 72458 42433 26436 71601 01677 77133 71339 11935 93537 73557 73488 46487 42487 71251 
14370 12574 74343 34324 64360 12341 34171 44673 14441 64973 18331 24580 24331 64369 16771 13390 19353 35377 35570 12420 64873 24871 
43707 43432 43245 05807 43601 23417 41712 46731 49730 45805 43313 43693 45247 33908 93537 53773 73557 55709 46487 48730 42487 48712 
37078 36208 45058 58076 36012 34171 33908 39088 35377 37735 35570 57092 27348 
70789 50580 80763 20259 71339 90881 55709 70926 79069 73488 
07893 05807 07639 61833 02594 43693 67713 77133 08811 81193 57092 05273 64873 
78936 58076 26436 18331 26436 36939 77133 71339 11935 70926 27906 06906 48730 
89362 86212 80763 64360 83316 86852 53862 86202 64369 69397 19353 09262 79069 69064 06462 87306 
93620 43601 38620 43693 93974 13390 93537 92627 90690 90646 64625 12420 
36208 76398 36012 16928 86202 36939 33908 39088 26279 06906 46254 24205 44248 
62086 58076 63982 12446 12716 69286 55386 62025 11016 39088 62790 69064 62540 42052 45046 42487 
20862 80763 24467 27161 92868 86852 53862 20259 25942 10167 90881 09262 06462 25402 20527 50464 30632 24871 
08621 07639 43601 01271 18331 28685 68522 38620 71601 01101 01677 08811 92627 64625 04648 06324 
86212 36012 41712 73012 83316 86852 85227 52272 86202 13512 16011 88119 09262 26279 06462 46254 55612 61242 48712 12512 
62125 60123 17124 30127 68522 22724 62025 33135 35126 60110 92627 62790 64625 62540 02355 56124 12420 87125 
21257 01234 23417 71244 24467 01271 85227 27245 20259 31351 51264 45247 01677 73557 26279 46254 23556 61242 24205 20527 71251 
12574 12341 17124 12446 12716 52272 22724 02594 13512 12643 93974 74524 52471 16771 35570 62540 12420 52734 84504 12512 
25743 80763 82643 22724 27245 25942 94243 12643 39745 45247 24716 67713 53773 55709 25402 05273 27348 45046 
57434 07639 26436 01234 17124 67314 31444 59424 42433 51264 26436 97452 52471 77133 37735 57092 56124 52734 50464 24424 
74343 76398 82643 64360 12341 71244 44673 73144 14441 64973 94243 24331 43313 12643 64369 74524 77133 71339 19353 77355 54023 27348 04648 64873 73063 44248 
43432 63982 26436 43601 23417 41712 46731 44416 49730 73012 53862 42433 43313 33135 13512 26436 43693 97452 93537 06462 25402 40235 42052 73488 46487 48730 30632 32442 42487 48712 
34324 39826 64360 34171 17124 67314 31444 44164 30127 22724 38620 59424 24331 31351 35126 64369 74524 35377 64625 54023 56124 34884 84504 06324 24424 
43245 43601 71244 73144 41649 27245 45805 94243 43313 33135 43693 39745 45247 46254 40235 61242 24205 48845 45046 63244 44248 
32450 12446 31444 72458 38620 42433 31351 97452 52471 35570 62790 62540 02355 12420 42052 88450 32442 42487 
24505 24467 28685 27245 24580 45805 24331 74524 24716 27906 64625 25402 23556 24205 20527 84504 24424 24871 
45058 72458 45805 58055 05538 45247 39088 46254 42052 45046 44248 
50580 24580 80553 55386 60110 90881 35570 90690 62540 20527 50464 
05807 85227 45805 05538 45247 01101 01677 08811 35377 55709 06906 25402 05273 
58076 52272 58055 55386 52471 11016 53773 57092 54023 45046 
80763 82643 60123 80553 10167 67713 81193 53773 50464 73063 
07639 01234 41649 05538 36939 01677 77133 71339 37735 04648 30632 
76398 16497 71618 16928 72458 69397 71339 13390 77355 27348 73488 06324 
63982 64973 73012 69286 68522 53862 25942 13512 93974 33908 61242 73488 63244 
39826 30127 69286 38620 59424 35126 39745 39088 70926 34884 
98264 01234 71244 44164 92868 94243 51264 93974 09262 69064 46254 50464 63244 
82643 12341 12446 44673 41649 80553 94243 42433 12643 43693 81193 92627 90646 62540 04648 32442 
26436 23417 12446 24467 46731 44416 16497 42433 24331 26436 36939 24716 26279 27906 06906 06462 25402 23556 46487 24424 
64360 24467 67314 44164 64973 24580 24331 64369 69397 47160 60110 13390 62790 69064 64625 62540 64873 
43601 44673 46731 41649 97301 45805 43313 43693 71601 01101 33908 
36012 41712 73012 31692 86852 86202 13512 36939 16011 11016 39088 57092 06462 55612 42052 30632 32442 48712 12512 
60123 17124 64973 30127 16183 61833 68522 80553 62025 35126 60110 10167 67713 77133 81193 70926 64625 54023 56124 20527 64873 87125 
01234 71244 31444 01271 61833 05538 02594 51264 01101 01677 71339 11935 09262 46254 40235 61242 05273 52734 06324 63244 71251 
12341 12446 14441 97301 12716 18331 24331 31351 12643 52471 16011 16771 13390 19353 62540 02355 12420 27348 32442 12512 
23417 24467 44416 16497 73012 83316 43313 13512 26436 24716 93537 73557 25402 23556 20527 73488 46487 24424 42487 
34171 44673 14441 44164 64973 30127 01271 27161 33169 24331 33135 31351 35126 52471 01101 16771 35377 35570 35561 34884 64873 24871 
41712 46731 44416 41649 49730 73012 12716 71618 31692 43313 13512 24716 11016 67713 55612 61242 42052 48730 48712 12512 
17124 67314 73144 44164 30127 27161 16183 16928 22724 59424 35126 74524 47160 10167 77133 56124 12420 06324 24424 87125 
71244 73144 31444 41649 01271 71618 27245 94243 51264 74524 45247 71601 71339 46254 61242 63244 44248 71251 
12446 31444 14441 44416 16497 12716 72458 42433 12643 26436 52471 11016 90646 62540 12420 45046 32442 42487 12512 
24467 14441 44416 44164 16497 27161 24580 24331 26436 64369 24716 10167 06462 25402 24205 20527 50464 46487 24424 42487 24871 
44673 44416 44164 41649 64973 94243 42433 43313 12643 43693 01677 53773 64625 54023 05273 04648 64873 44248 24871 
46731 49730 18331 42433 24331 26436 36939 16011 16771 37735 46254 40235 52734 46487 48730 48712 
67314 97301 83316 43313 64369 69397 60110 67713 77355 69064 27348 87306 06324 63244 
73144 73012 33169 33135 93974 74524 77133 73557 56124 73488 73063 63244 
31444 31692 59424 31351 51264 39745 61242 34884 50464 63244 32442 24424 
14441 18331 94243 24331 12643 52471 16011 16771 12420 04648 32442 24424 44248 24871 
44416 12716 83316 42433 43313 26436 24716 11016 45046 46487 24424 44248 42487 48712 
44164 27161 33169 51264 64369 74524 47160 10167 69064 46254 56124 34884 84504 50464 24424 44248 
41649 71618 31692 12643 43693 45247 71601 01677 71339 90646 61242 48845 45046 04648 44248 
16497 16183 16928 26436 69397 16011 10167 16771 13390 06462 12420 46487 42487 
64973 61833 94243 64369 93974 67713 53773 64625 54023 05273 64873 24871 
49730 42433 39745 47160 37735 62790 40235 52734 48730 48712 
97301 27161 18331 24331 31351 97452 71601 01101 90881 77355 27906 27348 87306 
73012 71618 83316 53862 43313 13512 16011 11016 73557 57092 79069 55612 42052 73488 73063 48712 12512 
30127 33169 85227 38620 33135 35126 60110 10167 35377 70926 92627 56124 20527 30632 87125 
01271 52272 31351 51264 52471 71601 01101 01677 16771 08811 09262 26279 61242 05273 24871 71251 
12716 83316 22724 13512 12643 24716 16011 11016 16771 67713 62790 12420 52734 48712 12512 
27161 33169 27245 24331 47160 01101 10167 77133 27906 35561 27348 24871 87125 
71618 31692 72458 71601 11016 01677 71339 55612 73488 04648 71251 
16183 16928 12643 16011 10167 16771 77133 81193 19353 56124 46487 
61833 42433 67713 77133 71339 81193 11935 61242 64873 
18331 24331 31351 16011 16771 71339 13390 08811 11935 19353 48730 
83316 55386 43313 13512 24716 11016 13390 88119 23556 87306 
33169 53862 33135 35126 64369 36939 47160 10167 33908 88119 79069 35561 73063 
31692 38620 31351 43693 71601 01677 81193 57092 90690 55612 61242 30632 32442 
16928 36939 16011 16771 33908 11935 70926 06906 56124 12420 06324 
69286 55386 69397 39088 09262 69064 61242 63244 
92868 72458 53862 90881 92627 
28685 27245 24580 58055 38620 64625 24205 48845 
86852 80553 53862 86202 97452 06462 46254 42052 88450 
68522 38620 62025 13512 74524 64625 62540 61242 20527 48712 12512 
85227 86202 35126 45247 35377 92627 20527 05273 87125 
52272 53862 86202 51264 52471 53773 57092 09262 26279 55612 61242 42052 05273 52734 32442 12512 
22724 62025 02594 59424 74524 24716 92627 62790 56124 12420 20527 52734 06324 24424 
27245 20259 25942 94243 39745 45247 37735 77355 26279 27906 40235 61242 24205 27348 48845 63244 44248 87125 
72458 42433 97452 52471 77355 73557 02355 12420 42052 73488 88450 32442 42487 71251 
24580 24331 74524 24716 35570 62540 23556 24205 20527 34884 84504 24424 24871 
45805 45247 55709 25402 40235 24205 48845 45046 
58055 62025 77355 57092 54023 02355 42052 48845 88450 
80553 20259 81193 19353 73557 23556 20527 88450 84504 
05538 02594 93537 35570 35561 05273 04648 
55386 35126 35377 55709 55612 45046 87306 
53862 13512 51264 53773 57092 09262 06462 55612 50464 73063 
38620 35126 35570 92627 90690 64625 12420 88450 48730 30632 
86202 09262 26279 06906 06462 46254 25402 61242 24205 84504 87306 
62025 92627 62790 69064 64625 62540 54023 02355 12420 42052 87125 
20259 26279 46254 40235 23556 24205 20527 71251 
02594 74524 62790 62540 02355 52734 84504 06324 12512 
25942 45247 27906 25402 55612 61242 27348 45046 32442 
59424 51264 74524 52471 69064 54023 56124 12420 52734 50464 06324 24424 
94243 12643 45247 90646 54023 61242 24205 05273 04648 64873 63244 44248 
42433 12643 26436 43693 52471 77133 40235 12420 42052 52734 46487 48730 32442 42487 
24331 26436 64369 24716 71339 24205 27348 24424 24871 
43313 43693 67713 13390 19353 53773 73063 48712 
33135 36939 39745 77133 33908 11935 93537 37735 40235 30632 87125 
31351 71601 01101 71339 19353 35377 77355 02355 35561 71251 
13512 16011 11016 13390 93537 73557 23556 55612 48712 12512 
35126 35377 35570 70926 35561 56124 45046 87125 
51264 09262 69064 46254 56124 61242 52734 50464 63244 71251 
12643 19353 92627 90646 62540 12420 04648 32442 12512 
26436 24716 26279 27906 06906 06462 25402 23556 46487 24424 
64369 71339 79069 69064 64625 64873 
43693 13390 81193 53773 90690 73063 
36939 71339 33908 11935 37735 26279 06906 30632 
69397 13390 19353 35377 62790 69064 
93974 33908 93537 53773 63244 
39745 39088 37735 48845 32442 
97452 77355 57092 06462 25402 42052 88450 32442 
74524 73557 70926 64625 54023 56124 20527 34884 84504 06324 24424 
45247 35377 46254 40235 61242 05273 48845 45046 46487 63244 44248 42487 
52471 16771 53773 12420 52734 50464 32442 42487 24871 
24716 11016 67713 27906 23556 24205 24424 24871 48712 
47160 10167 77133 48730 87125 
71601 01677 71339 71251 
16011 16771 08811 12512 
60110 67713 88119 62790 90690 62540 
01101 08811 81193 06906 71251 
11016 11935 45046 12512 
10167 20527 50464 
01677 35377 92627 05273 04648 
16771 53773 26279 24871 
67713 53773 37735 62790 64873 48712 
77133 81193 37735 77355 73063 87125 
71339 11935 77355 79069 71251 
13390 19353 62790 90690 12420 
33908 27906 06906 73488 
39088 79069 69064 73488 34884 
90881 90690 90646 34884 24871 
08811 48845 24871 48712 
88119 88450 48712 87125 
81193 87125 
11935 37735 40235 
19353 77355 02355 
93537 73557 92627 23556 20527 
35377 35570 35561 05273 
53773 55709 54023 05273 52734 64873 73063 
37735 40235 52734 48730 30632 87125 
77355 02355 27348 87306 87125 71251 
73557 23556 20527 73488 73063 71251 
35570 62540 35561 05273 
55709 25402 55612 52734 
57092 54023 55612 42052 
70926 27906 06906 90646 20527 
09262 79069 69064 06462 61242 05273 
92627 90690 90646 64625 12420 20527 42487 
26279 46254 24205 05273 24871 
62790 62540 12420 52734 48730 
27906 25402 23556 24205 27348 87306 
79069 73063 
90690 30632 
06906 87306 06324 
69064 50464 73063 63244 
90646 45046 04648 30632 
06462 50464 46487 06324 32442 
64625 24205 04648 64873 24424 87125 
46254 56124 42052 46487 06324 63244 44248 71251 
62540 61242 12420 63244 32442 12512 
25402 55612 24205 32442 24424 
54023 56124 64873 73063 24424 
40235 24205 48845 48730 30632 44248 
02355 42052 06324 
23556 20527 
55612 30632 48712 12512 
56124 52734 50464 06324 24424 87125 
61242 63244 32442 44248 71251 
12420 88450 32442 24424 42487 12512 
24205 84504 24424 44248 24871 
42052 45046 32442 42487 48712 12512 
20527 24424 
05273 64873 
52734 50464 48730 
27348 04648 87306 44248 
73488 46487 73063 42487 
34884 64873 24424 24871 
48845 48730 44248 48712 
88450 48730 
84504 87306 24424 
45046 44248 
50464 24424 
04648 44248 
46487 42487 
64873 24871 
48730 48712 
87306 87125 
32442 12512 
<------------Next-300-Signals------------>
25649 25250 25021 04644 23698 22729 95589 55899 91949 31949 55043 20189 21229 27229 29259 25933 23748 75119 25615 15678 85243 28779 21697 20589 48643 
56492 52502 46441 72292 37892 55899 58991 19490 19499 43452 50437 72292 51194 53372 56156 56788 52439 87792 86432 76182 
64923 74533 64414 44143 51623 69803 22922 78927 94907 94994 49943 62143 34520 22925 25933 58023 15953 43903 77923 44793 47933 04373 64326 61826 63833 
49232 45333 41433 16236 44862 48622 72292 29227 92272 89270 49077 49943 99435 43452 45203 43742 89022 90222 22212 08272 72292 29259 59335 80237 93532 59533 39033 90332 79231 47933 79331 43731 86432 43265 
92325 43385 62369 22922 92272 22729 92701 99435 94359 14345 90222 02221 22122 82722 22925 92593 59335 93358 02374 35327 91595 95337 37225 90332 03328 92312 93316 97165 64326 
23252 33851 23698 72292 22922 29227 92272 27293 43452 43742 90222 22212 22122 21229 08272 27229 72292 29259 93358 23748 93532 53275 53372 33722 72256 78852 33287 23121 43265 
32525 38516 22922 22729 34520 37705 70555 37420 02221 22122 82722 22925 92593 33580 35327 32751 91595 33722 37225 22561 88524 32877 31205 32657 
25250 22980 29800 29227 27293 89270 27010 45203 05550 22212 21229 27229 29259 25933 15953 72256 25615 85243 24390 91150 
52502 72292 22922 92272 92701 52037 55504 18902 22212 22122 82722 72292 92593 35802 93532 59533 53372 22561 52439 92312 11509 
25021 98031 22922 29227 22729 27010 59621 55043 89022 02221 22122 21229 27229 22925 25933 58023 35327 27511 98001 62091 22561 25615 23121 15097 65761 30031 
50218 80318 70448 62298 96214 50437 42018 90222 22212 22918 51178 80237 53275 80016 20915 56788 31216 50971 57618 00314 
02181 03184 04486 22980 92701 07701 70161 07731 62143 20189 02221 22122 12291 29185 11781 02374 37481 32751 00162 62091 09159 22561 23121 12169 76182 03147 
21817 31843 29800 29227 27010 01613 21434 20377 01890 22212 21229 22918 91851 85117 17810 10827 74819 27511 20915 25615 61567 32877 31216 21697 61826 
18172 85162 18434 48622 00872 08722 92272 16134 18902 22122 18511 51178 78108 08272 48193 00162 53372 15678 78852 28779 12169 16974 76182 18263 
81727 51623 84347 86229 80087 08722 87229 29227 22729 78927 89022 21229 85117 11781 81082 10827 82722 80237 81935 35327 01620 33722 61567 88524 87792 21697 80437 61826 
17273 16236 87229 92272 27293 89270 40773 45203 12291 17810 08272 27229 19353 53275 16209 15953 37225 15678 85243 77923 16974 47933 04373 18263 
72737 72292 22729 72937 78927 92701 70107 07731 52037 50437 82722 72292 80237 32751 95337 72256 52439 32877 79231 74447 79331 80437 43731 58937 32657 82638 
27374 53334 47044 27293 29378 27010 77319 21434 20377 04374 27229 02374 27511 53372 24390 28779 16974 97444 04373 37312 89370 26576 26383 00314 
73745 33340 43385 70448 93789 70955 73194 14345 03770 37705 77055 70555 43742 23748 53275 33722 69744 74447 43731 73120 93704 43265 03147 14705 
37453 33404 41433 33851 31843 27293 37892 43452 37705 77055 37420 37481 19353 32751 15953 37225 39033 77923 97444 47933 37312 37048 32657 33003 31470 
74533 44143 41433 14338 72937 34520 70555 74201 92593 25933 74819 93532 59533 39033 77923 79231 74447 44793 47933 79331 04373 63833 
45333 44143 41433 14338 43385 40773 49943 45203 55043 25933 59335 48193 19353 35327 15953 59533 95337 85243 43903 39033 90332 44793 47933 79331 04373 43731 05893 48643 26383 63833 38330 
53334 14338 43385 03184 18434 16134 73194 21434 52037 55504 50437 04374 59335 93358 02374 93532 53275 51194 59533 95337 53372 52439 90332 03328 79331 93316 43731 58937 93704 63833 38330 83300 00314 
33340 43385 33851 36980 31843 84347 43470 61340 31949 14345 34520 03770 43742 37420 93358 33580 23748 35327 53372 33722 24390 03328 33287 93316 33169 37312 73120 89370 37048 38330 83300 33003 03147 31470 
33404 64414 33851 03184 18434 43470 34704 13407 73194 21434 43452 37705 55504 37420 33580 35802 37481 33722 43903 33287 97444 33169 65804 31205 93704 83300 33003 31470 
34046 44143 38516 31843 84347 34704 47044 04486 77016 34077 31949 14345 34520 55043 11946 80016 39033 31216 74447 58043 37048 64326 33003 30031 
40464 41433 18434 43470 47044 70448 44862 70161 40773 21434 43452 50437 19469 00162 97444 44479 80437 70486 04864 43265 00314 
04644 03184 84347 34704 47044 04486 01613 94994 14345 04374 02374 94698 01620 69744 97444 74447 04373 04864 48643 00314 03147 
46441 43470 47044 70448 49943 43452 43742 37481 46980 97444 74447 44479 16911 43731 48643 86432 
64414 18434 34704 04486 94994 96214 21434 04374 74819 69744 97444 74447 44479 69115 65804 04864 64326 00314 
44143 31843 84347 47044 44862 40773 49943 62143 14345 45203 55043 43742 48193 85243 43903 74447 44479 44793 47933 58043 04373 48643 03147 
41433 51623 31843 18434 43470 01613 40773 49943 99435 21434 43452 45203 50437 25933 48193 81935 59533 52439 43903 39033 44479 44793 47933 80437 43731 48643 86432 63833 31470 
14338 16236 80318 18434 84347 29378 16134 94359 14345 04374 59335 93358 19353 94698 95337 15678 24390 90332 03328 79331 04373 12058 64326 82638 38330 14705 
43385 03184 43470 93789 43596 14345 43452 43742 29185 59335 93358 33580 53275 46980 53372 67885 43903 03328 33287 93316 43731 43265 26383 83300 
33851 31843 37892 43452 91851 93358 33580 35802 37481 32751 33722 78852 33287 32877 23121 33169 31691 43731 32657 63833 33003 30031 
38516 77016 43596 34520 18511 33580 27511 80016 88524 31216 93316 09716 37312 26576 38330 
85162 44862 70161 35962 89022 22122 85117 81082 82722 35802 75119 00162 85243 87792 12169 33169 97165 86432 65761 76182 
51623 31843 48622 01613 59621 55043 21229 51178 58023 51194 01620 59533 77923 21697 31691 71658 58043 48643 57618 61826 
16236 18434 86229 16134 96214 12291 80237 11946 16209 72256 56156 79231 31216 16974 16911 16580 86432 26576 18263 
62369 62298 22729 61340 77319 94359 62143 02374 19469 62091 22561 61567 52439 92312 12169 33169 64326 65761 
23698 62298 27293 29378 73194 43596 22918 93358 23748 94698 25615 15678 24390 03328 23121 21697 31691 71658 57618 82638 
36980 22980 31949 35962 34520 37420 33580 37481 46980 56788 33287 16974 16911 16580 76182 26383 38330 31470 
69803 29800 49943 62143 45203 35802 19353 69800 59533 67885 43903 39033 69744 69115 65804 05893 61826 63833 33003 
98031 98008 92701 58991 07731 99435 52037 91851 18511 58023 93532 98001 62091 95337 39033 90332 79231 79331 58043 43731 58937 38330 30031 
80318 70448 80087 29378 89919 77319 20377 42018 22918 85117 93358 80237 80016 20915 90332 03328 92312 93316 80437 37312 89370 57618 82638 83300 00314 
03184 04486 93789 99194 16134 73194 03770 04374 20189 29185 33580 02374 51194 00162 09159 03328 33287 23121 33169 73120 93704 04864 76182 00314 03147 
31843 37892 91949 01613 61340 31949 49943 62143 55043 01890 91851 35802 11946 85243 39033 32877 31216 31691 58043 31205 05893 37048 48643 61826 63833 33003 31470 
18434 19490 16134 13407 19499 99435 21434 50437 18902 18511 19469 88524 52439 16974 97444 80437 58937 86432 18263 38330 
84347 80087 94907 61340 34077 94359 14345 20377 04374 85117 80237 35327 95337 85243 24390 74447 80437 04373 89370 64326 83300 03147 
43470 89270 01070 19490 49077 90770 13407 40773 43596 43452 03770 43742 37420 33580 53275 46980 53372 43903 44479 43731 73120 89370 43265 83300 31470 
34704 92701 10709 94907 07701 34077 94994 34520 37705 55504 04374 74201 35802 32751 33722 69744 44793 65804 31205 93704 04864 33003 14705 
47044 27010 07095 49077 77016 49943 77055 55043 43742 42018 69744 97444 47933 58043 37048 48643 
70448 70107 70955 70161 70555 50437 78108 23748 97444 74447 71658 80437 37048 70486 
04486 04374 37481 74447 44479 09716 04373 70486 04864 64326 
44862 00872 37892 35962 43452 43742 35802 74819 00162 78852 44479 44793 04864 43265 
48622 08722 22922 78927 59621 43452 43742 18902 89022 90222 22122 08272 82722 58023 48193 01620 33722 78852 88524 48643 
86229 87229 29227 22729 89270 89919 96214 89022 90222 02221 21229 82722 27229 29259 80237 16209 37225 88524 85243 86432 
62298 72292 92272 27293 62143 42018 02221 22212 12291 22918 72292 92593 94698 62091 72256 12058 82638 
22980 22922 22729 72937 27010 20189 22212 22122 22918 29185 22925 25933 33580 46980 20915 22561 24390 16580 20589 26383 
29800 29227 29378 89270 27010 19490 01890 29185 17810 29259 35802 69800 24390 65804 89370 83300 
98008 92701 94907 42018 18902 78108 93358 58023 94698 98001 58043 12058 93704 37048 33003 
80087 70107 49077 34077 52037 20377 50437 20189 89022 85117 81082 10827 80237 80016 33287 15097 80437 20589 70486 30031 
00872 92272 37892 01070 90770 40773 20377 03770 04374 01890 90222 10827 08272 35802 02374 00162 53372 78852 90332 32877 50971 04373 05893 04864 00314 
08722 22729 78927 07701 07731 03770 43742 18902 89022 90222 02221 22122 08272 82722 58023 00162 01620 33722 78852 88524 03328 28779 87792 09716 
87229 22729 27293 89270 89919 77319 37420 89022 90222 02221 21229 82722 27229 29259 80237 16209 37225 88524 85243 87792 77923 
72292 27293 72937 37892 73194 74201 90222 02221 22212 22122 12291 08272 82722 72292 92593 62091 72256 78852 87792 79231 92312 76182 
22922 72937 78927 35962 18902 89022 90222 02221 22212 22122 21229 22918 82722 27229 72292 22925 25933 20915 33722 22561 77923 92312 23121 
29227 29378 78927 89270 49077 59621 20377 89022 90222 02221 22212 22122 21229 29185 10827 27229 22925 29259 80237 35327 37225 33287 79231 23121 21697 
92272 89270 92701 90770 96214 90222 02221 22212 22122 12291 08272 82722 72292 92593 02374 93532 53275 53372 72256 90332 32877 92312 
22729 92701 10709 20189 02221 22212 22122 21229 22918 82722 27229 22925 29259 23748 32751 33722 22561 52439 28779 23121 12169 20589 
27293 27010 07095 45203 22212 21229 12291 27229 72292 29259 92593 25933 48193 27511 37225 85243 24390 87792 77923 21697 44793 47933 05893 18263 26383 
72937 70107 70955 94907 52037 50437 22918 72292 22925 25933 80237 81935 95337 72256 52439 32877 77923 79231 74447 47933 79331 80437 58937 32657 82638 
29378 09558 49077 20377 04374 22918 29185 51178 29259 59335 93358 02374 23748 19353 53372 15678 24390 03328 28779 79331 04373 89370 26576 26383 
93789 10709 95589 91949 90770 94359 03770 43742 20189 11781 93358 33580 23748 93532 33722 56788 33287 28779 93316 33169 43731 20589 93704 
37892 07095 55899 35962 37705 37420 01890 17810 72292 35802 37481 33722 37225 67885 78852 32877 87792 31691 37312 05893 37048 
78927 70955 58991 94907 18902 78108 10827 22925 58023 35327 78852 88524 77923 74447 73120 58937 
89270 89919 19490 49077 90770 03770 89022 08272 29259 80237 53275 69800 85243 79231 89370 83300 31470 
92701 94907 90770 07701 07731 37705 74201 02221 12291 91851 11781 82722 92593 32751 98001 62091 22561 92312 43731 93704 65761 14705 
27010 77016 77319 77055 37420 42018 22212 22918 17810 27229 27511 80016 20915 25615 24390 37312 37048 57618 
70107 94907 70161 13407 73194 20377 70555 50437 74201 20189 85117 78108 10827 80237 75119 00162 74447 80437 73120 70486 76182 03147 
01070 49077 90770 01613 61340 34077 03770 05550 04374 01890 51178 81082 08272 02374 01620 91150 04373 89370 31470 
10709 90770 07701 13407 40773 19499 37705 20189 18902 11781 10827 19469 16209 28779 12169 11509 20589 93704 14705 
07095 07701 77016 07731 37705 77055 01890 62091 91595 37225 67885 87792 15097 97165 05893 37048 
70955 70161 77055 70555 22925 81935 20915 15953 72256 78852 77923 50971 71658 70486 
09558 70555 05550 29259 93358 19353 09159 59533 03328 09716 71658 12058 
95589 91949 94359 05550 55504 20189 92593 33580 93532 75119 91595 95337 11509 16580 20589 
55899 19499 55504 55043 01890 35802 74819 75119 51194 52439 15097 65804 05893 
58991 94994 59621 18902 12291 18511 58023 48193 51194 98001 62091 31691 16911 50971 58043 58937 
89919 77319 31949 19499 49943 89022 22918 85117 29259 74819 81935 75119 19469 80016 20915 09159 16911 69115 09716 89370 
99194 16134 73194 19499 94994 99435 96214 29185 92593 48193 51194 94698 09159 91595 69744 97444 69115 91150 97165 93704 
91949 61340 31949 94994 49943 94359 21229 91851 81935 11946 91595 97444 91150 11509 
19490 13407 19499 99435 37420 01890 12291 17810 19353 19469 69800 24390 15097 16580 89370 31470 
94907 13407 34077 94994 94359 74201 18902 94698 98001 95337 43903 74447 58937 93704 14705 
49077 34077 40773 49943 52037 20377 42018 89022 39033 32877 44479 15097 89370 
90770 40773 20377 03770 90222 90332 28779 91150 50971 89370 93704 31470 
07701 07731 03770 37705 74201 02221 11781 37481 32751 27511 98001 87792 09716 43731 93704 65761 14705 
77016 77319 77055 42018 17810 74819 27511 75119 80016 72256 77923 31216 93316 09716 37312 37048 70486 57618 
70161 73194 70555 74201 20189 78108 75119 00162 22561 79231 23121 12169 79331 33169 50971 97165 73120 70486 65761 76182 30031 
01613 01890 01620 25615 31216 21697 31691 09716 71658 04373 05893 48643 57618 00314 
16134 73194 96214 21434 51194 16209 56156 12169 16974 16911 16580 86432 76182 
61340 31949 62143 14345 01890 11946 69800 01620 61567 24390 69744 91150 89370 64326 61826 38330 83300 31470 
13407 19499 43452 50437 18902 10827 19469 16209 43903 33287 74447 11509 15097 80437 93704 83300 33003 03147 14705 
34077 34520 52037 20377 04374 35327 39033 33287 32877 74447 44479 15097 04373 37048 32657 33003 30031 31470 
40773 49943 45203 20377 03770 43742 48193 43903 28779 44479 44793 47933 50971 04373 43731 48643 
07731 03770 37705 02221 11781 37481 32751 27511 87792 79231 47933 79331 09716 43731 65761 30031 
77319 94359 77055 17810 27229 74819 27511 75119 77923 92312 79331 93316 37312 57618 00314 
73194 43596 78108 72292 48193 75119 51194 23121 33169 73120 93704 76182 03147 
31949 35962 21229 81935 11946 31216 33169 31691 11509 31205 37048 31470 
19499 12291 29259 19353 19469 16209 09159 52439 12169 44479 11509 15097 
94994 96214 04374 92593 51194 94698 91595 24390 16974 97444 44793 93704 04864 
49943 62143 45203 55043 43742 25933 48193 19353 11946 46980 15953 59533 85243 43903 39033 77923 69744 44793 47933 58043 48643 
99435 21434 50437 29185 59335 81935 93532 19469 91595 59533 95337 52439 39033 90332 79231 97444 79331 69115 97165 80437 86432 
94359 14345 04374 91851 29259 93358 74819 19353 94698 09159 95337 24390 90332 92312 44479 93316 91150 04373 64326 
43596 43452 43742 92593 33580 48193 93532 91595 43903 44793 93316 43731 43265 26576 
35962 18902 25933 35802 35327 00162 15953 33722 33169 37312 65761 
59621 89022 02221 59335 58023 01620 59533 79231 23121 79331 31691 50971 57618 
96214 90222 22212 16209 92312 31216 16974 97444 93316 16911 93704 00314 
62143 55043 22122 92593 48193 62091 85243 12169 69744 69115 58043 48643 63833 03147 
21434 50437 21229 25933 81935 51194 52439 21697 97444 80437 86432 31470 
14345 04374 59335 19353 11946 24390 74447 04373 64326 14705 
43452 43742 93358 93532 53372 33722 78852 43903 44479 43731 86432 43265 
34520 05550 37420 33580 35327 01620 33722 37225 88524 24390 16580 73120 64326 38330 31470 
45203 55504 55043 74201 25933 35802 48193 16209 15953 85243 43903 44793 47933 65804 31205 05893 48643 43265 18263 33003 
52037 55043 50437 42018 59335 58023 80237 62091 59533 95337 52439 39033 32877 15097 58043 80437 12058 58937 32657 82638 30031 
20377 50437 04374 20189 10827 80237 02374 35327 20915 95337 53372 24390 90332 32877 28779 21697 50971 80437 04373 20589 89370 26576 26383 00314 
03770 04374 43742 01890 08272 33580 02374 23748 53275 01620 53372 33722 03328 28779 09716 04373 43731 73120 89370 93704 83300 03147 31470 
37705 37420 35802 37481 32751 33722 37225 67885 87792 97165 37312 31205 93704 37048 33003 14705 
77055 37225 72256 67885 78852 77923 97165 71658 12058 37048 
70555 20915 91595 72256 78852 71658 20589 70486 
05550 01890 33580 01620 09159 15953 91150 16580 05893 
55504 35802 51194 59533 88524 11509 65804 93704 
55043 25933 58023 15953 59533 85243 39033 15097 58043 05893 37048 48643 33003 
50437 10827 59335 80237 59533 95337 52439 90332 74447 50971 80437 58937 70486 86432 30031 
04374 08272 02374 53372 24390 03328 16974 44479 04373 89370 04864 64326 00314 
43742 82722 23748 93532 53372 33722 43903 87792 69744 44793 43731 93704 48643 43265 03147 
37420 17810 27229 33580 37481 35327 01620 33722 37225 77923 97444 37312 73120 37048 38330 31470 
74201 02221 12291 78108 72292 74819 98001 16209 72256 79231 74447 79331 31205 14705 
42018 22212 22918 80016 62091 92312 12058 37048 57618 82638 
20189 22122 21229 29185 27229 29259 75119 00162 20915 09159 28779 23121 12169 33169 20589 70486 76182 26383 
01890 91851 17810 51194 69800 01620 91595 24390 21697 31691 91150 05893 04864 61826 31470 
18902 18511 78108 08272 35802 11946 98001 16209 15953 78852 43903 16974 16911 11509 58937 18263 14705 
89022 81082 82722 58023 80016 33722 88524 39033 87792 89370 86432 
90222 10827 08272 82722 27229 72292 80237 93532 00162 33722 37225 90332 92312 
02221 08272 82722 27229 72292 22925 02374 32751 01620 62091 37225 72256 22561 03328 79231 23121 
22212 08272 82722 27229 72292 22925 29259 27511 20915 72256 22561 25615 92312 31216 37312 
22122 82722 27229 72292 22925 00162 33722 22561 92312 23121 12169 73120 76182 
21229 27229 22925 29259 01620 16209 37225 28779 23121 31216 21697 11509 31205 20589 61826 
12291 11781 72292 92593 32751 16209 62091 72256 22561 79231 12169 31691 16911 15097 12058 18263 
22918 22925 25933 23748 27511 20915 22561 25615 92312 16911 12058 57618 82638 
29185 22925 29259 59335 20915 09159 25615 67885 23121 69115 97165 20589 76182 26383 
91851 93358 32751 98001 91595 78852 31691 91150 71658 61826 
18511 27511 98001 22561 88524 16911 11509 16580 18263 
85117 80237 35327 75119 80016 95337 25615 85243 69115 15097 80437 03147 
51178 53275 51194 53372 56156 15678 56788 91150 50971 71658 57618 31470 
11781 37481 32751 11946 56788 31691 16911 11509 16580 43731 65761 14705 
17810 74819 27511 69800 67885 16911 16580 37312 57618 
78108 48193 75119 98001 78852 71658 73120 76182 
81082 81935 80016 87792 86432 76182 
10827 80237 35327 32877 15097 80437 61826 
08272 02374 53275 00162 53372 78852 28779 04373 18263 
82722 32751 33722 88524 87792 92312 86432 82638 
27229 27511 16209 37225 28779 77923 23121 20589 
72292 62091 72256 78852 87792 79231 92312 76182 
22925 81935 20915 37225 22561 25615 77923 23121 
29259 19353 19469 16209 09159 72256 28779 79231 20589 
92593 48193 93532 94698 62091 91595 59533 22561 92312 44793 05893 
25933 81935 20915 15953 59533 95337 25615 85243 43903 39033 77923 47933 05893 58937 26383 63833 
59335 81935 19353 53275 59533 95337 53372 52439 39033 90332 79231 79331 69115 58937 89370 38330 
93358 23748 19353 93532 94698 95337 53372 90332 03328 92312 93316 91150 71658 12058 93704 83300 
33580 37481 93532 46980 33722 33287 33169 16580 73120 20589 38330 83300 33003 31470 
35802 35327 69800 33722 78852 32877 65804 37312 31205 05893 33003 
58023 48193 98001 59533 88524 39033 77923 58043 58937 48643 18263 33003 
80237 81935 80016 95337 85243 90332 33287 79231 80437 58937 86432 82638 30031 
02374 53372 03328 32877 92312 16974 04373 89370 04864 00314 
23748 33722 56788 03328 28779 23121 69744 43731 93704 37048 03147 
37481 32751 27511 37225 67885 33287 97444 31691 37312 37048 70486 30031 31470 
74819 75119 78852 74447 44479 04864 
48193 51194 43903 44793 47933 58043 05893 48643 18263 
81935 11946 20915 91595 47933 80437 31205 58937 86432 82638 
19353 19469 09159 15953 59533 39033 79331 04373 12058 89370 18263 26383 
93532 91595 59533 95337 53372 33722 90332 92312 93316 43731 93704 86432 63833 
35327 95337 33722 37225 03328 33287 32877 15097 37312 64326 32657 38330 
53275 53372 37225 33287 50971 31205 43265 
32751 62091 33722 72256 22561 32877 31691 43731 12058 32657 65761 30031 
27511 20915 22561 25615 23121 16911 37312 20589 26576 57618 
75119 09159 25615 12169 33169 69115 73120 76182 
51194 91595 56156 21697 31691 91150 
11946 15953 31216 16974 16911 11509 61826 
19469 16209 09159 52439 12169 44479 33169 11509 18263 
94698 91595 15678 24390 21697 44793 31691 71658 57618 82638 
46980 56788 43903 16974 47933 16911 16580 76182 26383 
69800 67885 69744 69115 65804 89370 61826 63833 83300 
98001 62091 58043 93704 33003 30031 
80016 20915 31216 93316 09716 80437 70486 30031 00314 
00162 09159 90332 12169 33169 97165 04864 76182 00314 03147 
01620 03328 21697 31691 91150 71658 73120 61826 31470 
16209 12169 16974 16911 11509 16580 31205 18263 14705 
62091 22561 31691 15097 12058 65761 30031 
20915 25615 16911 69115 50971 20589 00314 
09159 56156 12169 33169 69115 91150 09716 03147 
91595 61567 21697 31691 91150 11509 97165 31205 
15953 15678 85243 43903 77923 16974 47933 16911 15097 12058 05893 18263 
59533 52439 39033 79231 47933 79331 58043 58937 63833 
95337 90332 92312 79331 93316 15097 80437 58937 38330 
53372 90332 03328 92312 93316 50971 04373 37312 89370 83300 
33722 03328 33287 87792 23121 33169 43731 37312 73120 93704 33003 
37225 67885 33287 77923 31216 97165 37312 31205 37048 43265 
72256 78852 79231 31216 71658 12058 70486 32657 
22561 23121 12169 20589 26576 65761 
25615 21697 69115 57618 
56156 91150 26576 76182 
61567 21697 11509 65761 61826 
15678 16974 15097 71658 12058 57618 82638 
56788 16580 57618 76182 26383 
67885 69115 97165 65804 61826 63833 
78852 71658 76182 
85243 58043 05893 48643 18263 
52439 12169 44479 80437 58937 86432 82638 
24390 21697 44793 04373 89370 64326 26383 38330 83300 
43903 77923 44793 47933 43731 93704 48643 43265 63833 83300 33003 
39033 79231 47933 79331 58043 37048 63833 38330 33003 30031 
90332 92312 79331 93316 80437 37312 86432 38330 30031 00314 
03328 23121 93316 04373 73120 64326 83300 00314 03147 
33287 31216 33169 31205 43265 32657 33003 03147 
32877 32657 31470 
28779 44479 20589 26576 
87792 44793 37312 86432 
77923 47933 73120 
79231 79331 43731 30031 
92312 93316 37312 00314 
23121 33169 43731 73120 03147 
31216 93316 31691 09716 37312 31205 61826 31470 
12169 33169 11509 97165 12058 18263 
21697 31691 15097 71658 32657 
16974 16911 50971 16580 26576 
69744 69115 09716 65804 93704 65761 
97444 97165 93704 37048 
74447 80437 70486 03147 
44479 04373 31470 
44793 04373 43731 05893 48643 14705 
47933 43731 58937 48643 63833 
79331 43731 89370 38330 30031 
93316 09716 37312 93704 64326 83300 00314 
33169 97165 73120 43265 33003 03147 
31691 71658 31205 32657 30031 31470 
16911 50971 16580 
69115 09716 97165 
91150 97165 71658 73120 31470 
11509 16580 31205 20589 14705 
15097 12058 05893 
50971 58937 30031 
09716 00314 
97165 43265 
71658 12058 32657 57618 82638 
16580 20589 26576 76182 26383 
65804 05893 93704 04864 65761 61826 63833 
58043 58937 37048 48643 18263 33003 
80437 58937 70486 86432 82638 30031 
04373 05893 89370 04864 64326 26383 00314 
43731 93704 43265 65761 63833 30031 
37312 37048 57618 38330 00314 
73120 76182 83300 03147 
31205 43265 33003 31470 14705 
12058 37048 32657 82638 
20589 70486 26576 26383 
05893 04864 63833 
58937 38330 
89370 38330 83300 31470 
93704 83300 33003 14705 
37048 57618 33003 30031 
70486 76182 
04864 00314 
48643 18263 
86432 76182 82638 
64326 61826 
43265 18263 
32657 82638 
26576 26383 
38330 31470 
<------------Next-300-Signals------------>
62209 92759 69230 92304 35609 62363 52329 32189 64679 72959 62129 12901 61283 12839 42243 62151 23207 
22095 48035 27590 59085 23040 81995 32535 56098 23294 29435 21896 78085 07295 29590 21290 29016 28399 22434 02665 72475 61895 32077 
20954 80357 90850 30404 19956 08754 30164 25356 60985 37154 23294 80854 72959 22434 26658 65854 24759 18953 20778 
09540 03579 27590 08505 69230 23040 04040 04070 99560 87542 69730 01641 53560 09850 71543 08549 49860 29590 07860 99710 58547 89532 
95407 98927 75908 92304 30404 40407 95608 75429 97301 35609 98507 15438 45617 26467 15327 85498 98600 86007 95907 97106 88707 85471 59467 95324 41907 23207 
54070 59085 23040 04040 04070 56087 54298 53560 56098 85071 50710 54386 56175 64679 53278 54986 60072 59078 18870 87078 54717 94671 84190 19078 32077 
40706 30404 40407 40708 42986 50710 10866 42646 46798 00729 90786 78606 97106 87726 88707 70781 80266 46713 41907 90783 20778 
07068 04040 04070 07081 64168 56098 07108 08667 67338 27808 07295 59078 07860 86062 71064 06478 77261 87078 07818 02665 04618 19078 07837 07783 
70685 59085 70819 60875 41688 60985 71086 75315 73384 78085 90786 78606 60621 10647 72613 70781 78180 02665 66585 72475 90783 
06856 90850 05386 19956 08754 29866 16416 16883 25356 09850 10866 67356 56236 12456 21896 80854 07860 06212 06478 34836 07818 26658 65854 61896 07837 
68561 08505 99560 98669 64168 68832 53560 98507 08667 73562 62363 38691 24561 17531 18967 67981 60131 08549 60621 90161 77261 48362 62151 66585 58547 10461 18961 
85614 85053 95608 86697 35609 85071 86673 35623 86912 45617 75315 89673 84264 80854 85498 01612 72613 84224 83621 65854 85471 04618 89618 95324 
56148 50538 56087 54298 64168 56098 07108 56236 56175 53152 46798 53278 59078 16128 06478 26138 24348 28188 26658 58547 46189 96189 53243 
61480 69230 69730 41688 60985 71086 61753 67981 81760 32780 21290 61283 64787 61384 43483 81887 78180 66585 67910 61896 61895 
14803 16883 10866 94353 17601 13153 27808 12901 12839 13842 34836 18870 81802 18953 
48035 59085 08505 68832 88325 32535 66735 29435 43533 78085 48362 18026 
80357 90850 85053 40407 86697 88325 83253 25356 67356 94353 15327 80854 86007 83997 10647 19337 81887 88707 80266 71367 
03579 08505 53869 04070 08199 53560 73562 43869 43533 64679 53278 08549 00729 06478 13019 93375 33759 13679 
35798 75908 38692 40708 95608 54298 35609 56098 35623 15438 38691 35332 33218 46798 32780 85498 30193 33759 37596 33328 32818 36791 20778 
57989 59085 53869 07081 56087 42986 60985 54386 52329 32189 67981 54986 72959 67910 46189 96189 07783 
79892 38692 70819 29866 68832 09850 73562 21896 33842 79817 49860 29590 78772 13842 81802 79104 61896 61895 89532 78372 77837 
98927 86923 98669 88325 98507 08667 18967 38426 98176 15327 98600 95907 83997 38422 88707 18026 58547 18961 18953 95324 41907 
89275 69230 81995 60875 88325 83253 85071 86673 91245 56175 29435 89673 84264 53278 07295 59078 39971 84224 36215 93375 87078 80266 85471 72475 89618 89532 19078 
92759 92304 08754 98669 12456 61753 52329 94353 32189 96733 32780 00729 72959 90786 62129 12839 99710 62151 33759 24759 96189 90783 
27590 23040 99560 87542 53560 24561 17531 23294 21896 27808 07295 29590 07860 21290 28399 21513 37596 47594 67910 84190 
75908 40708 95608 75429 35609 07108 15438 75315 27808 85498 72959 95907 78606 12901 75963 75946 79104 41907 
59085 07081 56087 56098 60985 71086 54386 56175 29435 78085 54986 59078 29016 59633 66585 59467 19078 
90850 70819 99560 60875 09850 50710 10866 94353 80854 49860 98600 90786 07860 90161 99710 18870 65854 90783 
08505 08199 08754 88325 32535 98507 07108 08667 01315 78085 08549 98600 07295 78606 88707 02665 66585 58547 
85053 86923 83253 25356 85071 86673 35623 61753 94353 89673 76013 13153 80854 85498 86007 86062 75963 87078 65854 85471 18953 83723 
50538 40708 54298 32535 53560 56098 50710 56236 15438 17531 43533 67338 60131 31532 53278 59078 26138 59633 58547 89532 24338 20778 
05386 07081 42986 25356 71086 67356 54386 75315 35332 73384 01315 15327 54986 90786 61384 75946 95324 43384 07783 78376 
53869 70819 29866 98669 53560 10866 73562 43869 53152 52329 53321 33842 53278 49860 07860 12839 13842 13019 33759 59467 13679 53243 33841 
38692 08199 98669 86697 68832 35609 08667 35623 38691 35332 33842 38426 31532 98600 78606 01612 28399 78772 38422 48362 30193 37596 36791 38419 78372 37232 
86923 81995 86697 66973 16883 88325 83253 86673 35623 86912 31523 32943 89673 96733 76013 86007 86062 16128 83997 87726 84224 83621 01933 75963 96333 46713 18953 83723 
69230 99560 69730 68832 09850 66735 56236 69124 15232 29435 67338 60131 49860 29590 21290 61283 99710 15130 19337 59633 63332 67136 67910 89532 37232 
92304 95608 97301 98507 62363 52329 94353 73384 98600 95907 12901 97106 61384 22434 51301 93375 96333 79104 95324 43384 72320 
23040 73016 53560 23637 23294 33842 29590 21290 29016 13842 24348 13019 91046 53243 33841 23207 
30404 30164 35609 37154 38426 80854 38422 22434 30193 79104 10461 32433 38419 
04040 01641 09850 08549 07860 24348 91046 04618 84190 
40407 98507 45617 26467 86007 95907 10647 47877 43483 88707 59467 10461 41907 23207 
04070 09850 85071 64679 60072 59078 07860 06478 18870 87078 94671 04618 84190 19078 32077 
40708 95608 41688 50710 07108 46798 27808 00729 90786 88707 70781 46713 41907 90783 20778 
07081 56087 97301 01641 85071 07108 71086 17531 67981 17601 78085 07295 07860 77261 33281 87078 70781 07818 07837 07783 
70819 60875 75429 73016 50710 10866 43869 75315 79817 76013 80854 00729 72959 12839 72613 13019 32818 70781 07818 38419 77837 
08199 08754 98669 07108 08667 38691 32189 98176 08549 00729 07295 62129 28399 30193 28188 78180 46189 96189 38419 84190 
81995 86697 88325 60985 86912 91245 21896 81760 01315 85498 07295 21290 83997 01933 81887 81802 61896 61895 84190 41907 
19956 42986 29866 16416 25356 09850 10866 67356 12456 18967 13153 54986 72959 12901 29016 39971 19337 18026 75946 18961 18953 19078 
99560 29866 98669 69730 53560 09850 98507 73562 24561 81760 49860 98600 29590 07860 90161 99710 59467 89532 
95608 98669 97301 41688 35609 98507 07108 35623 15438 45617 17601 27808 85498 98600 95907 78606 97106 26658 94671 04618 89618 95324 
56087 86697 16883 56098 71086 56236 54386 56175 26467 76013 78085 54986 86007 59078 86062 64787 81887 66585 58547 54717 59467 46189 96189 32077 
60875 66973 68832 60985 10866 66735 63715 56175 64679 60131 80854 60072 60621 47877 93375 18870 66585 65854 72475 61896 61895 20778 
08754 09850 08667 37154 61753 80854 08549 00729 78772 33759 88707 65854 71724 24759 18953 07783 
87542 73562 71543 86912 17531 33842 31532 08549 86062 87726 13842 37596 87078 81802 58547 47172 17247 47594 89532 37232 
75429 35609 35623 15438 75315 52329 38426 15327 85498 00729 72959 62129 38422 75963 85471 71724 72475 75946 95324 38419 72320 
54298 64168 56098 56236 54386 23294 33218 84264 46798 53278 85498 54986 07295 59078 21290 84224 24348 54717 04618 53243 24338 84190 
42986 41688 60985 71086 54386 12456 32943 32189 42646 67981 32780 54986 72959 90786 12901 42243 43483 75946 46189 43384 41907 
29866 25356 09850 10866 43869 24561 29435 21896 26467 79817 27808 49860 29590 07860 29016 34836 80266 59467 61896 
98669 35609 98507 08667 43869 38691 18967 64679 98176 08549 98600 78606 90161 28399 48362 02665 94671 13679 18961 96189 38419 
86697 56098 08667 86673 23637 38691 86912 45617 89673 26467 46798 85498 86007 86062 83997 10647 83621 81887 88707 26658 36791 89618 84190 
66973 16883 60985 86673 66735 62363 36371 86912 56175 61753 32943 89673 96733 64679 67981 76013 60072 61283 39971 06478 01933 75963 96333 66585 46713 67910 18953 
69730 68832 09850 50710 66735 63715 69124 61753 29435 96733 67338 81760 60131 32780 49860 29590 99710 64787 15130 19337 59633 63332 67136 67910 89532 
97301 98507 07108 67356 36371 17531 94353 53321 67338 67981 17601 27808 98600 95907 12901 90161 97106 77261 51301 93375 96333 94671 95324 
73016 71086 73562 63715 75315 33218 73384 79817 76013 78085 78606 29016 71064 72613 13019 18026 75946 91046 78376 
30164 10866 37154 69124 32189 84264 60131 80854 90161 71064 30193 80266 79104 10461 
01641 08667 71543 38691 91245 42646 17601 01315 08549 60621 01612 10647 83621 51301 01933 02665 94671 91046 04618 33841 
16416 10866 56236 15438 86912 12456 38426 26467 76013 06212 29016 16128 06478 36215 13019 18026 46713 10461 38419 
64168 07108 62363 69124 24561 67338 84264 64679 60131 62129 90161 16128 64787 26138 24348 62151 28188 67136 04618 24338 84190 
41688 71086 45617 42646 46798 01612 61283 61384 43483 28188 81887 26658 04618 46189 89618 43384 41907 
16883 10866 86673 96733 76013 13153 16128 61283 12839 13842 43483 96333 81887 18870 66585 46713 46189 96189 18953 90783 07783 
68832 66735 15232 35332 67338 33842 60131 31532 60072 12839 78772 13842 38422 34836 48362 63332 18870 81802 65854 67136 61896 61895 89532 07837 78372 37232 77837 
88325 75315 52329 53321 38426 01315 15327 78085 28399 87726 38422 84224 48362 83621 93375 33328 88707 18026 95324 78372 83723 72320 78376 
83253 86673 61753 53152 23294 94353 43533 33218 89673 84264 13153 53278 80854 61283 83997 84224 42243 43483 83621 33759 33281 80266 18953 53243 83723 23207 
32535 66735 17531 31523 32943 29435 43533 35332 32189 31532 32780 12839 22434 34836 36215 37596 32818 02665 66585 72475 89532 32433 37232 32077 
25356 67356 54386 12456 75315 94353 35332 21896 15327 29016 28399 24348 26658 65854 24759 75946 95324 24338 78376 
53560 50710 73562 43869 24561 53152 43533 53321 81760 53278 49860 29590 07860 58547 59467 53243 
35609 35623 38691 45617 35332 32189 64679 17601 98600 95907 78606 33759 13679 38419 
56098 56236 56175 46798 76013 53278 85498 86007 59078 86062 16128 06478 26138 87078 26658 36791 19078 
60985 66735 63715 67981 60131 78085 54986 60072 90786 60621 61283 64787 61384 70781 66585 67910 61895 90783 
09850 79817 80854 49860 29590 07860 99710 18870 07818 65854 07837 
98507 08667 18967 98176 08549 98600 86007 95907 78606 97106 88707 58547 41907 23207 
85071 86673 36371 89673 85498 86007 60072 59078 86062 39971 83621 87078 85471 94671 19078 32077 
50710 63715 81760 32780 00729 90786 99710 70781 54717 46713 67910 90783 20778 
07108 37154 67338 17601 27808 07295 07860 16128 97106 06478 26138 28188 87078 07818 47172 67136 79104 04618 07837 07783 
71086 71543 54386 21896 73384 76013 78085 54986 90786 78606 29016 61283 71064 61384 81887 70781 78180 18026 71724 75946 71367 91046 61896 78376 
10866 43869 12456 21896 18967 80854 49860 90786 07860 90161 12839 10647 13842 34836 18870 18026 80266 10461 61896 18961 
08667 23637 38691 45617 18967 26467 08549 98600 07860 78606 01612 10647 48362 88707 02665 58547 59467 71367 04618 18961 07837 
86673 36371 86912 56175 89673 96733 64679 76013 86007 86062 06478 72613 83621 59633 96333 87078 26658 85471 94671 46713 13679 89618 83723 
66735 63715 56175 61753 29435 96733 67338 46798 60131 64787 26138 36215 96333 63332 66585 46713 67136 36791 61895 
67356 37154 54386 12456 61753 94353 67338 67981 97106 87726 61384 62151 37596 63332 65854 67136 67910 61896 78376 
73562 71543 43869 24561 53152 43533 73384 33842 31532 86062 71064 78772 77261 13842 48362 75963 63332 71367 89532 78372 
35623 38691 45617 31523 32943 35332 89673 38426 15327 60621 72613 38422 83621 30193 75963 59633 33328 95324 32433 83723 
56236 54386 56175 15232 96733 53278 54986 06212 26138 34836 36215 59633 96333 80266 67136 53243 37232 
62363 61753 52329 32943 94353 67338 62129 61283 72613 61384 42243 48362 62151 75963 96333 63332 02665 71367 32433 72320 
23637 45617 23294 29435 43533 26467 83997 10647 26138 22434 83621 19337 59633 63332 26658 13679 24338 07837 23207 77837 
36371 38691 56175 35332 53321 39971 06478 36215 51301 93375 96333 33328 33281 85471 94671 36791 33841 78372 32077 78376 
63715 61753 75315 33218 01315 99710 64787 36215 13019 93375 33759 63332 66585 54717 46713 67910 61895 83723 
37154 69124 53152 32189 13153 80854 97106 62151 30193 33759 37596 65854 47172 47594 67136 79104 37232 
71543 91245 61753 31523 32943 43533 76013 31532 08549 61283 71064 72613 42243 21513 01933 75963 58547 71724 75946 71367 91046 53243 
15438 12456 17531 15232 29435 35332 67338 15327 85498 16128 12839 06478 26138 22434 15130 19337 85471 10461 32433 24338 19078 
54386 52329 94353 53321 73384 54986 90786 64787 61384 24348 34836 51301 54717 24338 43384 78376 
43869 43533 33842 49860 07860 12839 47877 13842 43483 48362 13019 33759 13679 46189 43384 33841 
38691 38426 17601 98600 78606 60621 28399 39971 38422 83621 30193 37596 33281 94671 36791 18961 33841 38419 
86912 76013 86007 86062 06212 01612 83997 36215 81802 46713 67910 89618 89532 
69124 60131 60621 62129 16128 61384 84224 62151 65854 71724 67136 79104 95324 
91245 01315 07295 21290 61283 42243 36215 93375 17247 91046 61895 53243 
12456 38426 42646 13153 72959 12901 12839 22434 62151 18026 72475 10461 18953 32433 
24561 84264 26467 29590 90161 77261 24348 21513 24759 94671 10461 18961 24338 
45617 42646 79817 15327 95907 01612 10647 47877 72613 54717 46713 04618 89618 41907 
56175 98176 53278 59078 16128 06478 26138 36215 93375 66585 47172 72475 46189 96189 
61753 94353 96733 81760 13153 61283 64787 61384 62151 21513 01933 33759 65854 71724 24759 46713 61896 61895 18953 90783 83723 07783 
17531 43533 67338 67981 17601 60131 31532 12901 12839 77261 15130 19337 37596 17247 47594 67136 10461 18961 89532 07837 37232 77837 
75315 35332 73384 79817 76013 01315 15327 78085 72613 36215 93375 75963 72475 75946 71367 95324 78372 72320 78376 
53152 53321 33842 13153 53278 13842 62151 33759 63332 47172 53243 
31523 43533 38426 31532 61283 38422 21513 30193 01933 37596 33328 71724 32433 83723 
15232 35332 31532 15327 06212 12839 13842 15130 19337 63332 17247 89532 37232 
52329 53321 32189 15327 00729 72959 62129 12839 28399 51301 33328 95324 72320 
23294 33218 21896 73384 84264 53278 07295 29590 21290 28399 83997 84224 22434 33281 47594 53243 43384 23207 
32943 32189 33842 42646 32780 72959 12901 39971 72613 42243 30193 01933 75963 32818 75946 18953 53243 32433 33841 32077 
29435 26467 29590 29016 26138 22434 19337 59633 72475 59467 89532 32433 24338 
94353 96733 13153 24348 93375 96333 24759 94671 18953 95324 24338 90783 
43533 96733 13153 31532 42243 43483 21513 01933 59633 96333 63332 47594 46713 89532 53243 32433 43384 83723 
35332 67338 33842 31532 15327 38422 34836 48362 15130 19337 96333 63332 33328 89532 95324 32433 24338 78372 37232 
53321 73384 15327 53278 60621 83621 51301 93375 63332 33328 33281 95324 53243 43384 33841 83723 72320 
33218 33842 53278 06212 36215 13019 33759 33328 33281 32818 07818 04618 89618 53243 33841 38419 37232 23207 
32189 32780 72959 62129 12839 62151 30193 33759 33281 32818 28188 78180 46189 96189 32433 38419 32077 
21896 27808 29590 21290 29016 28399 34836 21513 37596 81887 81802 91046 61896 61895 
18967 26467 15327 95907 12901 83997 10647 48362 19337 75963 18870 88707 18026 58547 17247 59467 71367 10461 18961 18953 41907 
89673 64679 59078 39971 72613 83621 59633 87078 85471 94671 13679 89618 89532 19078 83723 
96733 46798 76013 90786 99710 26138 01933 59633 96333 46713 36791 96189 32433 90783 83723 07783 
67338 67981 60131 27808 26138 61384 24348 19337 96333 63332 33328 87078 07818 67136 67910 24338 07837 37232 77837 
73384 78085 71064 61384 43483 93375 63332 33328 33281 70781 78180 71724 71367 79104 95324 43384 78372 72320 78376 
33842 31532 13842 38422 34836 33759 63332 33328 33281 32818 81802 53243 33841 37232 
38426 98176 78606 87726 38422 34836 37596 33328 18026 32433 38419 78376 
84264 81760 80854 86062 71064 77261 84224 80266 84190 
42646 78606 10647 72613 42243 02665 75946 91046 
26467 86007 86062 06478 26138 22434 26658 59467 71367 10461 23207 
64679 60072 60621 62129 64787 24759 94671 13679 04618 
46798 85498 16128 06478 26138 26658 47594 46713 36791 46189 20778 
67981 60131 54986 60621 12901 61283 39971 64787 77261 61384 62151 33281 70781 66585 67136 67910 18961 07783 
79817 49860 29016 99710 47877 72613 19337 32818 81887 07818 54717 59467 71367 79104 89618 07837 77837 
98176 98600 90786 78606 90161 97106 78772 93375 28188 18870 78180 18026 47172 94671 67136 91046 96189 78372 78376 
81760 32780 49860 07860 86062 21290 99710 71064 87726 81887 88707 81802 80266 71724 71367 84190 83723 
17601 27808 98600 78606 60621 12901 97106 10647 77261 83621 51301 17247 94671 13679 10461 18961 
76013 78085 86007 86062 06212 29016 71064 72613 36215 21513 13019 75963 96333 46713 
60131 60072 60621 62129 90161 26138 62151 15130 30193 63332 70781 67136 10461 
01315 07295 06212 01612 61384 36215 21513 51301 01933 93375 07818 02665 71367 04618 61895 
13153 16128 13842 43483 62151 15130 13019 30193 33759 13679 18953 53243 83723 
31532 01612 38422 34836 21513 01933 37596 63332 81802 89532 32433 37232 
15327 95907 16128 10647 15130 19337 33328 18026 17247 71367 95324 72320 
53278 59078 06478 93375 33328 33281 87078 13679 53243 19078 23207 20778 
32780 90786 99710 64787 33759 33281 32818 70781 78180 36791 32433 90783 72320 32077 07783 
27808 07860 97106 47877 26138 24348 32818 28188 87078 07818 81802 26658 24338 07837 23207 20778 77837 
78085 78606 71064 78772 28188 70781 78180 18026 66585 72475 78372 78376 
80854 84224 81887 81802 80266 65854 
08549 00729 28399 58547 38419 
85498 83997 06478 87078 85471 89618 84190 
54986 90786 64787 34836 54717 75946 
49860 29590 07860 99710 47877 48362 18870 59467 
98600 95907 78606 99710 97106 18870 88707 78180 94671 
86007 95907 86062 83997 81887 88707 87078 81802 41907 23207 32077 
60072 59078 86062 60621 78772 63332 87078 47172 19078 78372 32077 20778 
00729 90786 60621 62129 87726 33759 70781 71724 24759 90783 83723 20778 07783 
07295 07860 06212 21290 77261 36215 37596 07818 02665 17247 47594 61895 07837 37232 07783 
72959 62129 12901 12839 72613 62151 33759 75963 72475 24759 75946 18953 72320 
29590 21290 29016 28399 99710 21513 37596 47594 89532 84190 
95907 12901 83997 97106 75963 88707 75946 95324 41907 23207 
59078 29016 39971 06478 59633 87078 59467 89618 19078 32077 20778 
90786 90161 99710 97106 64787 87726 70781 80266 91046 96189 90783 20778 07783 
07860 47877 77261 18870 07818 02665 67910 07837 07783 77837 
78606 97106 78772 72613 88707 78180 18026 75946 79104 78372 78376 
86062 71064 48362 87078 81802 80266 89532 
60621 90161 10647 83621 62151 70781 94671 10461 
06212 01612 06478 36215 07818 46713 04618 37232 
62129 16128 12839 62151 67136 46189 96189 72320 
21290 61283 28399 21513 61896 61895 84190 23207 
12901 12839 39971 62151 51301 10461 18961 18953 41907 
29016 99710 21513 13019 18026 91046 89618 19078 
90161 97106 77261 62151 30193 70781 80266 94671 10461 18961 96189 90783 
01612 72613 21513 01933 07818 81802 02665 04618 89618 
16128 06478 26138 15130 33328 28188 18026 26658 46189 96189 19078 
61283 64787 61384 42243 43483 21513 01933 33281 81887 66585 61896 61895 53243 90783 07783 
12839 13842 22434 34836 15130 13019 19337 32818 18870 13679 32433 07837 77837 
28399 24348 48362 28188 24759 24338 38419 78372 78376 
83997 83621 81887 88707 84190 41907 83723 23207 
39971 33281 85471 94671 36791 18961 33841 19078 32077 
99710 54717 46713 67910 89618 90783 
97106 87726 37596 47172 67136 79104 91046 96189 
71064 77261 61384 75963 71724 71367 79104 91046 
10647 13842 19337 58547 17247 13679 10461 
06478 26138 87078 07818 26658 85471 72475 04618 19078 20778 
64787 61384 81887 88707 70781 66585 54717 24759 90783 07783 
47877 81887 18870 87078 07818 47172 17247 47594 41907 07837 32077 77837 
78772 38422 48362 18870 88707 70781 78180 47172 71724 72475 78372 20778 78376 
87726 84224 83621 37596 88707 87078 18026 80266 71724 67136 83723 07783 
77261 75963 33281 70781 80266 17247 71367 10461 18961 37232 77837 
72613 42243 21513 75963 59633 32818 02665 72475 46713 04618 89618 32433 72320 
26138 22434 24348 15130 96333 28188 26658 67136 46189 96189 24338 20778 
61384 51301 63332 81887 66585 65854 71724 71367 61896 61895 95324 43384 
13842 13019 63332 18870 81802 17247 13679 53243 33841 
38422 48362 33328 18026 32433 38419 78372 37232 
84224 83621 80266 71724 95324 84190 83723 
42243 17247 46713 53243 32433 
22434 72475 32433 24338 
24348 33328 28188 26658 24759 04618 24338 20778 
43483 33281 46713 46189 53243 32433 43384 90783 83723 07783 
34836 37596 32818 67136 61896 32433 24338 33841 07837 37232 77837 
48362 63332 47172 71367 18961 43384 78372 78376 
83621 33328 33281 85471 94671 13679 89618 33841 83723 
36215 33281 32818 66585 46713 36791 38419 37232 
62151 65854 67136 
21513 01933 46713 
15130 19337 18870 78180 67136 84190 
51301 81802 71367 41907 
13019 33759 18026 13679 38419 19078 
30193 37596 36791 32433 84190 90783 
01933 75963 59633 96333 18953 32433 41907 07837 07783 
19337 59633 96333 63332 17247 59467 71367 89532 24338 19078 07837 77837 
93375 96333 63332 33328 72475 94671 13679 95324 43384 78372 78376 
33759 33328 33281 24759 13679 36791 33841 38419 83723 
37596 47594 67136 36791 61896 37232 
75963 75946 71367 18961 18953 
59633 59467 89618 89532 53243 32433 
96333 46713 96189 95324 32433 24338 90783 
63332 67136 89532 24338 43384 78372 37232 
33328 95324 24338 43384 33841 83723 72320 
33281 70781 36791 53243 43384 33841 37232 23207 
32818 07818 04618 89618 32433 33841 38419 32077 
28188 78180 26658 46189 96189 24338 20778 
81887 81802 71367 61896 61895 41907 07837 77837 
18870 78180 18026 13679 18961 18953 19078 78372 78376 
88707 81802 58547 54717 41907 83723 23207 
87078 85471 47172 89618 19078 32077 20778 
70781 71724 36791 10461 90783 20778 07783 
07818 67910 04618 89618 07837 07783 77837 
78180 79104 46189 96189 84190 78372 72320 78376 
81802 61896 61895 89532 41907 
18026 91046 18961 18953 19078 78376 
80266 10461 
02665 72475 04618 
26658 24759 04618 89618 24338 20778 
66585 46189 96189 61895 
65854 61896 61895 95324 
58547 17247 59467 53243 
85471 72475 94671 10461 
54717 24759 59467 46713 04618 
47172 47594 67136 46189 78372 37232 
71724 71367 79104 95324 83723 72320 
17247 53243 07837 37232 23207 77837 
72475 32433 78372 72320 32077 78376 
24759 24338 20778 
47594 43384 
75946 91046 78376 
59467 10461 
94671 04618 
46713 46189 90783 83723 07783 
67136 61896 07837 37232 77837 
71367 41907 78372 72320 77837 78376 
13679 19078 
36791 33841 
04618 24338 
46189 43384 
89618 19078 
96189 90783 
89532 37232 
95324 72320 
53243 83723 23207 
32433 37232 32077 
24338 20778 
41907 23207 
19078 32077 20778 
90783 20778 07783 
07837 07783 77837 
78372 78376 
83723 07783 
37232 77837 
72320 78376 
<------------Next-300-Signals------------>
66273 16291 91283 16477 64779 36218 28293 61479 64943 43272 66596 96779 69853 66155 41277 86207 62078 86224 62244 46293 62933 15293 16393 
62734 62912 12831 64779 62185 82934 77784 69304 32723 67791 86754 98534 59034 12771 62078 62244 62933 08744 52939 63931 02284 
27342 28316 63362 21852 23282 29349 77848 27239 72392 32442 29182 29282 28792 87922 67549 85347 90341 27712 77122 07862 22446 24462 29330 87444 24152 29398 22849 
73423 77963 79633 33621 18523 93497 78483 83643 79013 32723 23929 24429 79226 79103 70133 75495 53476 03412 77122 71221 78622 74441 28493 
34230 36218 85232 34977 84836 36430 16930 14790 90130 27239 39299 44291 92260 44860 95930 30060 34766 34127 29330 44160 31700 35310 84936 
42308 52328 48364 64301 69304 47901 01301 72392 42918 82928 92828 22606 01338 41448 48604 59300 03368 62078 93300 33008 41606 29398 49365 
23081 33621 23282 43011 24601 93045 13016 23929 29182 29282 28287 26066 91031 13386 33601 93006 33685 20786 33008 30087 68881 13931 93984 63931 13531 
30816 28316 36218 32829 84836 30112 46016 30459 13016 30164 10310 33867 36014 30060 00606 34766 70336 36858 14886 20786 30087 00874 44416 88813 39317 00656 39845 18916 39313 35310 
08162 83164 63362 48364 30112 01124 60169 30164 29182 18292 28792 03105 06069 03412 77122 03368 48862 07862 78622 24462 08744 44160 88139 06568 88592 24152 89163 
81629 31647 33621 32829 83643 01124 01693 61479 01649 23929 24429 91829 82928 82879 87922 06659 51839 83959 61559 71221 88620 78622 86224 44629 41606 88139 81393 85924 41529 91639 
16291 16477 36218 28293 11246 16930 14790 16494 39299 92991 44291 18292 66596 67791 76901 18395 15590 12771 71221 12217 86207 86224 46293 16068 13931 59241 15293 84591 19601 01891 16393 13531 
62912 63362 62185 82934 30112 64943 72392 92991 29914 32442 42918 82928 87922 65967 77910 69017 03412 27712 12217 62078 62244 62933 92415 52939 45919 18916 63931 
29128 52328 29349 01124 23929 29914 99141 24429 29182 82928 29282 92828 79226 79103 89518 34127 77122 22170 55148 29330 24152 29398 59196 89163 00228 
91283 23282 28293 78483 11246 01693 91418 14183 91829 29282 28287 92260 91031 01793 95183 41277 71221 21703 51488 46293 81393 15293 93984 91960 91639 31353 02284 
12831 32829 82934 84836 12460 16930 92991 41832 92828 82879 91031 17933 51839 12771 12217 17033 14886 62933 68881 13931 52939 19601 01891 63931 13531 22849 
28316 96336 28293 29349 48364 46016 13016 29914 18324 28287 28792 22606 26066 10310 13386 79336 18395 27712 70336 20786 22446 29330 44416 88813 39317 29398 18916 39313 35310 28493 
83164 63362 82934 48364 83643 01124 60169 30164 83244 03105 33867 86754 93360 14144 83959 03368 85514 86224 87444 44160 88139 93170 85924 93984 89163 93135 53100 
31647 33621 34977 83643 11246 01693 46147 01649 32442 59677 31057 33867 38675 33601 41448 85347 34127 41277 33685 30087 41606 39317 31700 39845 91639 31353 31002 
16477 93497 34977 49777 36430 12460 16930 46147 61479 16494 59677 96779 10570 14486 53476 41277 12771 12217 86207 16068 16393 
64779 34977 49777 97778 64301 60169 61479 14790 64943 24429 82879 96779 67791 67549 95769 90179 60489 34766 61559 12771 62078 44629 68859 60189 
47796 49777 97778 77784 46016 04596 14790 47901 44291 28792 66596 67791 49576 57690 01793 34766 47661 27712 20786 46293 44416 41606 17006 59196 
77963 77784 77848 78483 45965 47901 79013 64943 87922 65967 77910 79103 57013 70133 76901 17933 47661 55903 77122 17033 07862 62933 70065 91960 89163 
79633 78483 83643 01693 59654 79013 49432 79226 59677 79103 70133 17933 79336 39593 69853 76615 59034 17033 70336 78622 62933 29330 19601 89163 91639 39313 
96336 84836 36430 46016 16930 96544 90130 94327 26066 66596 96779 91031 01338 13386 79336 93360 95930 93006 98534 90341 70336 29330 93300 96018 91639 16393 93135 84936 
63362 23282 48364 64301 60169 69304 43272 72392 60665 65967 13386 33867 93360 03412 03368 48862 07862 24462 93300 63931 49365 
33621 32829 83643 43011 24601 32723 23929 33867 38675 33601 47661 34127 71221 33685 88620 78622 44629 33008 13931 19601 63931 13531 93658 
36218 36430 30112 46016 39299 91418 42918 36014 86048 89518 76615 12217 36858 86207 86224 46293 33008 16068 06888 39317 06568 96018 39313 35310 00228 
62185 60169 14183 29182 60665 03105 60141 60489 95183 06985 66155 22170 33685 68585 62078 62244 62933 60688 68881 65688 56885 92415 60189 93135 02284 
21852 41832 29182 91829 29282 28792 31057 51839 69853 61559 27712 21703 36858 85855 48862 07862 24462 68859 24152 01891 31353 31002 22849 
18523 28293 78483 32723 14183 18324 18292 10570 17933 18395 39593 98534 15590 17033 68585 58551 88620 78622 88813 88592 41529 15293 18916 16393 13531 10022 28493 
85232 82934 84836 49432 43272 27239 41832 83244 18292 29282 87922 95930 85347 85855 85514 86207 86224 88139 88592 85924 15293 84936 
52328 94327 32723 72392 18324 42918 82928 92828 01338 59300 03368 55148 51488 62078 52939 29398 00228 
23282 43272 27239 23929 83244 29182 18292 29282 28287 28792 13386 03412 27712 33685 20786 24462 24152 93984 02284 
32829 30459 32723 23929 39299 32442 24429 91829 82928 92828 82879 33867 51839 34127 36858 44629 68859 41529 52939 39845 22849 
28293 78483 01693 27239 39299 44291 18292 29282 28287 28792 01793 18395 39593 21703 46293 88813 81393 88592 15293 29398 16393 28493 
82934 84836 16930 92991 29914 83244 42918 82928 82879 87922 86754 17933 83959 95930 98534 59034 85514 86224 62244 62933 87444 88139 13931 85924 52939 93984 63931 02284 84936 
29349 69304 01649 27239 23929 39299 29914 99141 24429 29182 29282 67549 79336 59300 85347 90341 22446 29330 39317 59241 29398 39845 39313 22849 49365 
93497 93045 16494 94327 92991 91418 33867 75495 93360 93006 53476 03412 93300 93170 92415 93984 98459 93135 28493 93658 
34977 64943 94327 65967 59677 31057 33867 38675 54957 34766 34127 41277 30087 39317 84936 
49777 46147 49432 43272 59677 96779 49576 69017 41277 12771 39317 49365 
97778 91418 92828 96779 67791 95769 90179 12771 27712 62078 93170 96018 93658 
77784 67791 77910 86754 27712 77122 20786 08744 87444 93984 02284 
77848 92828 77910 67549 41448 86048 77122 36858 55148 07862 87444 74441 06888 39845 22849 
78483 79013 14183 28287 79103 70133 75495 14486 60489 95183 68585 51488 78622 74441 68881 88813 98459 28493 
84836 04596 41832 82879 79336 14486 44860 04895 51839 34766 70336 85855 14886 44416 88813 88139 84591 84936 
48364 69304 45965 44614 30164 18324 93360 44860 48604 48951 18395 98534 47661 03368 48862 08744 44160 49365 
83643 01693 93045 01649 64943 83244 33601 86048 83959 85347 33685 88620 87444 88813 81393 89163 93658 
36430 12460 16930 30459 90130 16494 49432 32442 36014 95930 30060 36858 29330 31700 35310 
64301 24601 69304 54461 47901 01301 64943 94327 44291 67791 05701 76901 33601 60141 59300 90341 93300 74441 68881 84591 19601 63931 
43011 46016 93045 44614 47901 79013 13016 43272 44291 42918 91031 57013 69017 33601 36014 48951 93006 47661 03412 33008 44416 13931 45919 96018 63931 13531 
30112 60169 30459 90130 30164 32442 29182 10310 70133 90179 36014 60141 30060 03412 34127 27712 77122 30087 39317 24152 60189 39313 35310 31002 10022 
01124 01693 01301 30164 01649 18324 91829 03105 01338 01793 01414 14144 34127 77122 71221 86224 00874 08744 85924 41529 01891 00228 02284 
11246 65446 13016 01649 83244 18292 79226 13386 14144 41448 14486 41277 71221 12217 14886 62244 22446 41606 17006 59241 15293 18916 
12460 16930 54461 14790 16494 32442 92260 10310 10570 93360 14486 44860 30060 15590 12771 12217 22170 22446 24462 44160 16068 92415 91960 
24601 54461 44614 47901 01301 24429 44291 22606 05701 76901 33601 48604 00606 47661 21703 24462 44629 74441 41606 24152 84591 19601 
46016 44614 46147 79013 13016 42918 26066 66596 57013 49576 69017 36014 86048 93006 06069 76615 46293 44416 41606 16068 17006 45919 96018 18916 
60169 30459 61479 90130 30164 60665 65967 70133 67549 95769 90179 60141 60489 30060 06069 60698 66155 61559 44160 60688 88139 70065 68859 60189 89163 
01693 04596 01301 01649 06659 01338 57690 01793 01414 04895 39593 00606 60698 21703 46293 41606 81393 00656 15293 01891 91639 16393 31353 28493 
16930 14790 90130 16494 77910 10310 10570 76901 17933 95930 06985 15590 17033 62933 29330 16068 13931 52939 91960 18916 16393 63931 13531 84936 
69304 59654 01301 29914 18324 79103 69017 79336 48604 59300 69853 59034 62244 29330 93300 39317 29398 19601 39313 49365 
93045 96544 13016 99141 83244 91031 03105 93360 86048 93006 90341 33685 93300 33008 93170 70065 92415 93984 39845 96018 93135 93658 
30459 61479 30164 39299 32442 24429 06659 31057 90179 60489 83959 30060 61559 36858 30087 00656 68859 98459 60189 31353 
04596 14790 44291 66596 49576 01793 14486 04895 39593 00606 34766 15590 14886 44416 00656 06568 88592 84591 59196 01891 84936 
45965 47901 42918 60665 65967 75495 95769 44860 48951 95930 06985 47661 55903 85855 48862 44160 70065 85924 45919 91960 49365 
59654 29914 06659 59677 86754 54957 57690 48604 59300 69853 59034 58551 00656 59241 59196 19601 93658 
96544 16494 99141 83244 66596 96779 86754 67549 36014 14144 86048 98534 90341 85514 86224 62244 08744 87444 06568 93984 96018 
65446 64943 32442 66596 65967 67549 75495 60141 41448 14486 60489 85347 53476 55148 62244 22446 87444 74441 44416 65688 
54461 24429 44291 54957 14486 44860 53476 34766 47661 58551 51488 24462 74441 44416 44160 59241 84591 
44614 29914 44291 42918 36014 01414 14144 44860 48604 47661 76615 85514 44629 44416 44160 41606 45919 
46147 99141 60141 14144 41448 86048 85347 66155 34127 41277 55148 86207 46293 44160 
61479 01649 91418 24429 91829 82879 96779 67549 90179 01414 41448 60489 51839 53476 61559 41277 51488 62078 68859 41529 98459 60189 91639 
14790 16494 14183 44291 18292 28792 67791 10310 10570 57690 01793 14144 14486 44860 04895 18395 34766 15590 12771 14886 44160 31700 15293 84591 16393 
47901 92991 44291 42918 87922 67791 77910 05701 76901 17933 33601 48604 48951 47661 55903 41606 13931 17006 45919 19601 63931 
79013 29914 79226 77910 79103 57013 70133 69017 79336 36014 89518 39593 69853 76615 59034 17033 88813 39317 70065 96018 89163 39313 
90130 99141 92260 91031 10310 10570 70133 90179 93360 60141 95183 95930 30060 98534 90341 22170 70336 29330 93300 44160 88139 93170 91960 60189 91639 93135 53100 
01301 91031 03105 05701 01338 76901 01793 33601 01414 59300 00606 90341 71221 21703 03368 93300 41606 81393 31700 19601 01891 31353 31002 
13016 26066 10310 57013 13386 69017 36014 14486 93006 53476 03412 12217 17033 14886 33008 44416 16068 13931 17006 96018 18916 13531 10022 
30164 60665 70133 33867 90179 36014 60141 14144 30060 34766 34127 30087 00874 44160 70065 60189 89163 
01649 91829 06659 01338 67549 01793 01414 41448 51839 00606 06069 61559 44629 08744 41606 00656 41529 01891 91639 22849 
16494 18324 18292 66596 86754 75495 36014 01414 14144 14486 18395 15590 86224 46293 87444 16068 15293 16393 28493 
64943 14183 65967 67549 54957 17933 60141 14144 69853 55903 62244 62933 74441 63931 84936 
49432 41832 32442 29182 29282 49576 79336 41448 59034 03412 48862 24462 29330 44416 49365 
94327 18324 24429 91829 92828 54957 93360 85347 90341 34127 44629 93300 39317 
43272 41832 83244 44291 18292 29282 49576 53476 03412 41277 48862 46293 93170 
32723 32442 82928 92828 01793 39593 34766 34127 12771 21703 62933 31700 39313 31353 
27239 24429 29282 28287 67549 17933 51839 27712 17033 29330 88139 52939 91639 22849 
72392 32442 18292 28792 75495 79336 18395 77122 70336 78622 81393 88592 29398 16393 
23929 24429 91829 82928 87922 83959 44629 13931 85924 41529 52939 93984 45919 63931 22849 
39299 44291 18292 29282 79226 39593 46293 39317 59241 15293 29398 39845 59196 39313 
92991 44291 42918 82928 92828 92260 67791 91031 76901 48951 95930 90341 12771 62933 13931 92415 52939 93984 84591 91960 01891 63931 
29914 42918 29182 29282 77910 69017 36014 01414 89518 59034 27712 85514 29330 39317 85924 29398 93984 45919 18916 39313 
99141 29182 79103 91031 90179 60141 14144 95183 90341 55148 74441 93170 59241 39845 59196 19601 89163 93135 
91418 42918 91829 92828 91031 01338 01414 41448 89518 03412 51488 44416 92415 98459 91960 96018 91639 93658 
14183 29182 79103 70133 13386 17933 14144 14486 95183 34127 17033 14886 44160 24152 15293 60189 89163 16393 
41832 91829 91031 01338 41448 44860 51839 41277 48862 07862 41606 41529 01891 91639 31002 
18324 18292 10310 13386 14144 48604 18395 98534 88620 78622 86224 08744 85924 18916 16393 10022 
83244 86754 14144 86048 83959 85347 85514 86207 86224 62244 08744 87444 85924 59241 93984 02284 
32442 41448 03412 62244 22446 24462 87444 74441 92415 39845 31002 22849 
24429 14486 60489 34127 22446 24462 44629 74441 44416 24152 41529 98459 22849 28493 
44291 67791 44860 04895 48951 47661 41277 71221 44629 46293 74441 44416 44160 59241 15293 84591 01891 
42918 92828 77910 41448 48951 89518 12217 62078 62933 44416 92415 52939 45919 96018 18916 
29182 28287 28792 79103 95183 27712 77122 22170 20786 24462 29330 24152 29398 59196 60189 89163 
91829 82879 96779 91031 95769 90179 51839 61559 71221 44629 68859 41529 98459 91960 01891 91639 22849 
18292 28792 18395 15590 12217 48862 78622 46293 88592 15293 18916 16393 10022 28493 
82928 87922 86048 89518 83959 88620 62078 86224 62933 85924 52939 00228 84936 
29282 79226 27712 20786 24462 29330 59241 24152 29398 02284 
92828 92260 36858 62078 06888 92415 96018 00228 22849 93658 
28287 41277 12217 68585 86207 20786 30087 68881 02284 28493 
82879 96779 90179 51839 83959 12771 22170 85855 62078 00874 88813 88139 68859 52939 22849 
28792 67791 01793 18395 27712 21703 48862 20786 78622 24462 08744 88592 24152 29398 28493 
87922 77910 17933 83959 27712 77122 88620 07862 78622 86224 87444 88592 85924 10022 84936 
79226 79103 49576 79336 77122 71221 70336 78622 86224 59241 59196 00228 
92260 95769 93360 44860 95930 30060 12217 22170 62244 93300 44160 93170 92415 91960 02284 
22606 33601 48604 93006 00606 22170 21703 20786 22446 41606 17006 00656 19601 22849 
26066 36014 86048 93006 30060 06069 34766 20786 22446 24462 16068 17006 70065 06568 96018 
60665 38675 60141 60489 30060 00606 60698 47661 76615 66155 33685 68585 60688 70065 00656 65688 60189 49365 
06659 86754 83959 00606 06069 06985 76615 66155 61559 36858 44629 06888 00656 06568 68859 98459 91639 93658 
66596 67549 49576 39593 60698 66155 61559 15590 68585 46293 06568 88592 84591 59196 16393 
65967 33867 54957 95769 69017 95930 85347 55903 62933 65688 85924 45919 91960 63931 
59677 38675 54957 49576 57690 69017 59300 53476 59034 41277 39317 59241 59196 19601 
96779 86754 95769 90179 06069 12771 93170 98459 96018 91639 
67791 05701 67549 57690 01793 60141 60698 47661 12771 27712 68881 84591 01891 63931 
77910 57013 57690 76901 17933 95930 76615 27712 77122 45919 91960 18916 35310 
79103 70133 76901 79336 95183 39593 59300 69853 55903 77122 21703 59196 19601 89163 39313 53100 
91031 01338 51839 95930 93006 98534 59034 90341 71221 17033 13931 91960 96018 01891 91639 63931 93135 13531 31002 
10310 13386 93360 18395 59300 30060 15590 90341 12217 70336 29330 93300 39317 18916 16393 39313 35310 10022 
03105 33601 04895 93006 00606 06985 66155 03412 03368 33685 93300 33008 93170 93135 53100 
31057 33867 54957 69017 36014 30060 61559 34127 41277 36858 33008 30087 39317 31700 31353 31002 
10570 49576 90179 30060 15590 12771 22170 00874 93170 13531 10022 
05701 95769 76901 01793 33601 00606 55903 12771 21703 08744 31700 19601 01891 
57013 57690 69017 17933 36014 55903 59034 27712 17033 88813 17006 96018 39313 
70133 90179 17933 79336 60141 95183 77122 17033 70336 62933 88139 70065 60189 89163 93135 
01338 01793 79336 01414 41448 51839 70336 03368 51488 29330 06888 81393 06568 29398 01891 91639 31353 00228 
13386 79336 93360 14486 18395 93006 53476 70336 03368 33685 14886 20786 93300 13931 17006 93984 18916 16393 13531 
33867 93360 33601 44860 30060 34766 34127 03368 33685 36858 48862 07862 33008 30087 39317 39845 
38675 33601 48604 18395 76615 33685 68585 88620 78622 39845 
86754 36014 86048 83959 66155 36858 85855 85514 86207 86224 08744 87444 85924 
67549 60141 60489 61559 68585 62244 87444 68859 41529 60189 22849 
75495 04895 18395 76615 15590 85855 74441 70065 92415 15293 28493 
54957 48951 83959 55903 34127 58551 24152 52939 84936 
49576 79336 89518 39593 53476 41277 44416 41606 41529 59196 49365 
95769 93360 95183 95930 06069 34766 98459 45919 91960 91639 
57690 59300 60698 47661 15590 88620 59196 53100 
76901 33601 48951 06985 76615 55903 71221 86207 74441 13931 19601 63931 
69017 36014 89518 69853 59034 12217 62078 30087 39317 96018 39313 
90179 60141 60489 95183 90341 22170 00874 88139 93170 98459 60189 91639 93135 
01793 01414 04895 39593 21703 46293 08744 81393 31700 15293 01891 16393 31353 28493 
17933 95930 55903 17033 62933 13931 17006 15293 52939 18916 16393 63931 13531 84936 
79336 59300 59034 70336 29330 39317 29398 59196 39313 84936 49365 
93360 44860 95930 59300 93006 30060 90341 03368 29330 93300 44160 93170 93984 91960 93135 35310 53100 49365 93658 
33601 48604 93006 00606 47661 33685 93300 33008 41606 13931 31700 19601 63931 13531 53100 31002 93658 
36014 86048 30060 06069 76615 59034 36858 85514 86224 33008 30087 16068 39317 96018 39313 35310 31002 
60141 60489 60698 66155 90341 55148 62244 74441 60688 68881 59241 60189 63931 
01414 03412 85514 51488 00874 08744 87444 44416 92415 01891 02284 
14144 34127 55148 14886 62244 08744 87444 74441 44160 24152 
41448 41277 55148 51488 22446 87444 74441 44416 41606 41529 
14486 53476 34766 51488 14886 20786 22446 24462 74441 44416 17006 18916 84936 
44860 30060 34766 47661 14886 48862 07862 24462 44629 44416 44160 91960 49365 
48604 00606 98534 47661 48862 88620 78622 44629 08744 41606 19601 
86048 06069 85347 36858 55148 86207 62078 86224 33008 87444 16068 06888 06568 96018 
60489 60698 61559 68585 51488 20786 30087 60688 68881 65688 68859 98459 60189 
04895 18395 06985 85855 14886 07862 00874 06888 56885 39845 84591 01891 
48951 83959 47661 58551 48862 68881 13931 68859 98459 45919 18916 63931 
89518 39593 85514 88813 39317 06568 88592 29398 84591 96018 89163 39313 
95183 95930 55903 55148 93170 65688 15293 93984 60189 89163 93135 
51839 61559 59034 51488 88139 56885 68859 41529 52939 01891 91639 22849 
18395 15590 68585 81393 88592 15293 29398 18916 16393 28493 49365 
83959 61559 85855 88139 13931 68859 85924 52939 93984 98459 45919 63931 84936 93658 
39593 69853 15590 46293 81393 39317 88592 15293 29398 39845 84591 59196 89163 16393 39313 31353 28493 
95930 98534 15590 55903 62933 29330 93300 13931 93170 85924 52939 93984 45919 91960 91639 63931 93135 35310 84936 
59300 55903 59034 29330 93300 39317 31700 59241 29398 59196 19601 39313 35310 53100 49365 
93006 53476 93300 33008 41606 93170 17006 93984 96018 93135 53100 31002 93658 
30060 34766 33008 30087 44160 16068 31700 70065 91960 35310 31002 10022 
00606 70336 20786 00874 41606 60688 17006 00656 19601 00228 
06069 03368 07862 16068 06888 70065 06568 96018 
60698 62078 60688 00656 65688 29398 60189 00228 93658 
06985 76615 66155 33685 68585 06888 06568 56885 93984 02284 
69853 66155 61559 36858 85855 62933 68881 88813 68859 39845 89163 39313 31353 
98534 59034 68585 58551 85514 08744 88139 88592 93984 98459 91639 93135 13531 
85347 90341 85855 85514 55148 86207 87444 81393 39317 85924 35310 
53476 03412 51488 22446 44416 93170 59196 53100 
34766 34127 14886 20786 24462 44416 44160 31700 84936 
47661 48862 07862 44629 44160 41606 19601 49365 
76615 33685 78622 70065 56885 92415 96018 
66155 36858 68585 85855 56885 68859 24152 60189 93135 
61559 68585 58551 68859 41529 98459 60189 91639 31353 
15590 85514 88592 15293 84591 16393 13531 35310 
55903 21703 55148 62933 85924 15293 52939 45919 53100 
59034 17033 29330 59241 52939 59196 
90341 70336 93300 74441 59241 
03412 03368 07862 24462 44416 92415 
34127 44629 30087 44160 39317 24152 
41277 12217 86207 46293 41606 41529 
12771 22170 62078 13931 19601 13531 
27712 21703 20786 07862 24462 24152 
77122 07862 78622 24152 10022 
71221 78622 86224 74441 59241 41529 01891 00228 
12217 86207 62244 39317 92415 15293 18916 02284 
22170 62078 22446 29330 44160 93170 24152 53100 22849 
21703 20786 41606 81393 31700 31353 31002 28493 
17033 62933 16068 13931 17006 15293 16393 13531 10022 
70336 20786 29330 70065 00656 84936 
03368 07862 93300 33008 16068 06888 06568 29398 00228 49365 93658 
33685 33008 30087 60688 65688 56885 93984 39845 93135 93658 
36858 33008 16068 06888 06568 56885 68859 39845 96018 31353 93658 
68585 60688 68881 65688 56885 68859 88592 60189 
85855 88813 56885 68859 85924 39845 
58551 68881 68859 88592 59241 98459 84591 13531 
85514 86224 87444 88813 88592 85924 84591 45919 35310 
55148 65688 59241 59196 53100 
51488 60688 06888 65688 56885 
14886 20786 44416 06888 68881 17006 56885 18916 84936 
48862 07862 78622 24462 44160 68881 88813 68859 88592 49365 
88620 78622 86224 44629 88813 88139 88592 85924 
86207 86224 46293 
62078 62244 62933 33008 16068 60688 65688 96018 
20786 22446 30087 60688 00656 60189 
07862 24462 00874 06888 06568 01891 
78622 44629 88592 10022 
86224 46293 87444 85924 00228 02284 
62244 62933 08744 87444 59241 02284 22849 
22446 87444 74441 44416 92415 22849 28493 
24462 74441 44416 44160 24152 28493 
44629 44416 44160 41606 41529 45919 91639 
46293 81393 15293 16393 28493 
62933 13931 52939 63931 84936 
29330 39317 29398 39313 35310 49365 
93300 93170 31700 93984 91960 93135 35310 53100 93658 
33008 16068 31700 17006 96018 53100 31002 93658 
30087 60688 39317 70065 60189 31002 10022 
00874 06888 00656 01891 00228 02284 
08744 02284 
87444 85924 
74441 59241 84591 
44416 92415 45919 18916 84936 
44160 93170 24152 91960 89163 53100 49365 
41606 31700 17006 00656 41529 19601 91639 31002 
16068 17006 70065 06568 96018 16393 10022 
60688 00656 65688 60189 00228 93658 
06888 06568 65688 56885 96018 01891 00228 02284 
68881 65688 56885 68859 60189 01891 63931 
88813 68859 88592 18916 89163 39313 28493 
88139 68859 88592 52939 98459 60189 89163 91639 93135 84936 
81393 88592 15293 29398 84591 01891 89163 16393 39313 31353 28493 
13931 52939 93984 19601 18916 63931 93135 13531 84936 
39317 29398 39845 39313 31353 35310 49365 
93170 93984 91960 93135 53100 93658 
31700 91960 31353 35310 53100 31002 
17006 19601 18916 31002 10022 
70065 10022 49365 
00656 00228 93658 
06568 96018 00228 
65688 60189 93658 
56885 39845 
68859 98459 60189 22849 
88592 84591 28493 
85924 93984 45919 84936 
59241 39845 59196 19601 
92415 98459 96018 93135 
41529 45919 91639 
15293 16393 28493 
52939 45919 91639 63931 22849 84936 
29398 59196 16393 39313 28493 49365 
93984 91960 63931 93135 02284 93658 
39845 39313 22849 49365 
98459 91639 28493 93658 
84591 01891 13531 84936 
45919 18916 35310 
59196 89163 53100 
91960 91639 
19601 13531 
96018 93658 
18916 84936 
89163 49365 
91639 93658 
16393 28493 
63931 84936 
39313 49365 
93135 93658 
<------------Next-300-Signals------------>
04696 94898 72296 44679 84648 64896 51616 01186 18696 69698 14995 74394 70996 75796 79698 84617 34668 94526 64826 01791 24593 24897 02899 06498 34092 02366 23666 
46964 48987 22961 51974 48844 46793 41184 18464 46489 48965 16164 86969 96987 49955 43943 43834 09965 15914 57969 96984 46174 46685 66854 45261 82994 34064 48266 45938 48975 22064 64984 40925 36668 
69641 29618 19748 33341 84648 89651 65161 61645 38601 69698 69872 68211 99652 59147 79698 69846 61748 68549 18341 29942 40648 66801 16241 20649 49848 48631 
96419 96189 33519 97488 33411 46489 96516 16455 86011 86969 96987 11499 37439 96520 91475 96984 98461 92009 83414 99420 06482 12459 62414 52489 06498 98486 86310 73409 
64194 61890 35197 74884 34118 41184 64896 65161 16164 64555 60118 69698 82114 14995 65374 74394 34824 46174 74834 66854 20094 61834 34140 82994 34064 64826 91124 24593 62414 24143 24897 62874 64984 63109 34092 
41948 18908 51974 19748 48844 41184 11846 84648 48965 61645 21149 49955 43943 38348 48245 40138 61748 48346 00945 41407 29942 40648 11245 45938 41432 35248 48975 40528 49848 40925 
19489 96189 89083 19748 97488 18464 46489 16455 11869 11499 37439 39438 83482 15709 17483 09452 18829 99420 06482 12459 59382 52489 60289 89979 98486 73409 09259 
94898 61890 90833 97488 74884 34118 84648 64896 69698 14995 74394 94383 34824 79698 74834 34668 94526 14078 07818 94202 64826 24593 93822 14328 24897 02899 99790 06498 49848 84863 34092 92591 
48987 86887 18908 48844 41184 46489 48965 96987 49955 43943 48245 01387 96984 48346 46685 41407 40781 78188 48266 68017 45938 43287 48975 28997 97907 06287 50917 64984 98486 48631 40925 
89878 68872 29618 89083 19748 84648 89651 69698 69872 39438 13874 79698 69846 14078 07818 81882 82668 80179 32876 87628 89758 89979 79070 62874 85688 09172 49848 84863 
98786 88722 96189 97488 88446 96516 55386 01186 18696 96987 98723 99556 94383 38743 75796 96984 98461 48346 94526 40781 78188 48266 28762 97585 99790 90706 28740 91722 98486 
87868 87229 97488 84467 84648 53860 11869 86969 87236 72368 87430 57969 83466 34668 07818 81882 82668 87628 89758 07062 87405 28568 85688 49848 84863 36668 
78688 29618 18908 97488 74884 84648 38601 18696 69698 72368 23682 38348 79698 34668 46685 52618 78188 40648 82668 26680 87628 76282 70628 28568 85688 98486 48631 36668 
86887 96189 89083 74884 84467 46489 86011 86969 96987 36821 56537 83482 01387 96984 84617 46685 66854 26183 81882 06482 26680 66801 43287 76282 24897 06287 85688 56885 84863 86310 
68872 61890 48844 64896 69872 68211 65374 13874 69846 66854 68549 61834 81882 18829 64826 66801 68017 93822 32876 28762 62825 28252 48975 62874 68850 09172 
88722 88446 98723 83482 38743 85492 81882 18829 88299 93822 38221 28762 87628 28252 82525 89758 28740 88509 91722 
87229 86969 87236 37439 87430 57099 47579 57969 18829 88299 80179 38221 82216 87628 82525 60289 89979 87405 88509 17220 09259 
72296 64896 18696 87236 72368 74394 70996 75796 79698 88299 82994 48266 82216 32876 76282 02899 52856 72206 92591 10236 02366 
22961 48965 65161 86969 72368 09965 52051 57969 98461 45261 82994 29942 82668 17911 22162 28762 28997 28568 22064 92591 25910 02366 23666 
29618 19748 34118 84648 89651 51616 60118 69698 23682 39438 99652 20515 79698 84617 34668 52618 07818 29942 40648 82668 26680 79112 21624 87628 89758 70628 28568 85688 20649 49848 25910 23666 36668 
96189 97488 41184 46489 96516 16164 01186 86969 96987 21149 94383 96520 05159 96984 46174 46685 92009 26183 78188 06482 26680 80179 91124 76282 52489 97585 60289 06287 56885 98486 63109 
61890 11846 64896 61645 53860 11869 69698 69872 11499 51570 51591 69846 61748 66854 61834 81882 64826 66801 01791 62825 24897 02899 99790 62874 68850 31097 
18908 19748 18464 48965 38601 18696 14995 38348 15709 15914 18341 14078 78188 18829 17911 45938 14328 48975 16028 28997 97907 28568 88509 10973 
89083 79333 89651 86011 94383 83482 54013 17483 26183 81882 42023 59382 89758 89979 79070 85688 85091 84863 91023 
90833 67933 79333 93334 98723 94383 43834 40138 74834 61834 20234 93822 45533 90706 84863 10973 91023 10236 
08335 79333 93334 48965 38348 48245 01387 01025 02515 09965 48346 00945 18341 02340 52535 48975 58545 55337 05285 48631 09734 02366 
83351 93334 33341 33411 89651 86011 83482 82454 74301 10251 52051 83466 18341 83414 25352 89758 85455 53379 33791 85091 86310 
33519 33341 33411 34118 96516 37439 43010 02515 20515 47579 68549 83414 53524 53379 33791 37916 88509 63109 73409 
35197 34118 65161 30102 25157 05159 59147 75796 85492 34140 35248 24897 55337 33791 28997 85091 31097 34092 
51974 41184 51616 65374 13874 51570 51591 15914 91475 57969 96984 46174 54920 61834 82994 91124 21624 53524 48975 53379 89979 62874 50917 64984 10973 
19748 11846 84648 69698 53743 39438 38348 38743 15709 59147 14757 79698 69846 61748 18341 14078 29942 40648 11245 16241 14328 35248 89758 16028 99790 28740 49848 09734 
97488 46489 96987 37439 39438 94383 83482 87430 91475 96984 98461 17483 07818 78188 99420 06482 87628 52489 97585 97907 87405 85688 06498 98486 97340 
74884 41184 64896 74394 94383 43834 34824 13874 74301 96984 74834 66854 61834 78188 81882 34064 64826 76282 24897 75854 62874 74052 56885 64984 84863 
48844 41184 11846 18464 48965 43943 43834 38348 34824 48245 13874 38743 69846 46174 74834 48346 66854 68549 61834 18341 18829 40648 48266 48975 75854 58545 62874 28740 68850 49848 48631 
88446 11846 18464 84648 18696 87236 38348 83482 48245 82454 38743 87430 69846 98461 48346 83466 68549 85492 18341 83414 88299 23406 48266 82216 58545 85455 28740 87405 88509 98486 
84467 18464 84648 86969 83482 82454 87430 14757 98461 84617 83466 34668 85492 83414 41407 34064 82668 24897 85455 87405 84863 
44679 84648 46489 47579 84617 46174 34668 46685 14078 40648 80179 48975 53379 89979 20649 48631 
46793 46489 45553 98723 53743 43943 38743 75796 46174 46685 26183 40781 42023 01791 24593 45533 33791 99790 06498 
67933 87236 37439 43943 87430 57969 17483 61834 17911 45938 45533 37916 97907 64984 10973 
79333 72368 74394 39438 94383 74301 79698 74834 79112 59382 45533 55337 79160 79070 09734 
