090669 620019 150966 509664 096649 343269 432699 992760 091597 047564 196863 398646 975469 691064 910644 015364 645469 690039 003962 039620 030228 292603 032165 730839 839769 397697 
906695 200191 509664 096649 966492 432699 326992 927601 218895 968634 986464 607975 754691 910644 106440 153645 454690 900396 926032 216585 308397 397697 976970 
066955 001911 019115 096649 966492 664928 326992 269927 594925 543755 550915 188955 607975 079754 546910 064401 536454 546900 003962 022845 032165 216585 165854 161785 083976 976970 
669557 664928 649283 269927 699276 949254 437550 509159 091597 889558 464677 467707 686347 644607 460797 079754 469106 364546 469003 670337 165854 658548 617854 769707 
695574 492834 699276 192114 121544 120594 492543 375509 091597 915972 895588 646770 677073 047564 101534 607975 797546 691064 015364 645469 690039 396204 703374 165854 658548 617854 
955749 775029 911509 096649 928343 992760 921147 215440 205949 925437 375509 755091 915972 159722 955881 475641 756419 015343 975469 910644 153645 645469 962042 033748 658548 839769 
557495 750293 966492 154407 059492 594925 254375 543755 755091 550915 597222 218895 558814 730475 756419 564196 153433 607975 754691 153645 536454 454690 337489 585482 397697 
574957 502939 293987 664928 269927 154407 544071 594925 543755 550915 509159 188955 464677 873047 304756 564196 534334 644607 079754 546910 536454 546900 670337 374898 748987 414417 144177 976970 
749577 939878 649283 269927 699276 544071 949254 091597 889558 446467 464677 646770 730475 047564 644607 446079 797546 703374 748987 489873 332677 841617 144177 441773 769707 
495775 398786 492834 699276 992760 191215 440711 594925 492543 254375 543755 915972 895588 464677 646770 467707 730475 475641 446079 460797 607975 489873 898732 326772 416178 161785 441773 417730 
957750 987862 191150 992760 927601 912154 949254 543755 437550 159722 955881 646770 467707 208730 304756 347110 079754 454690 987323 152960 228450 267728 617854 854220 287220 417730 976970 
577502 987862 911509 927601 407112 437550 375509 597222 467707 677073 707332 073322 087304 047564 471101 797546 546900 529603 960302 284502 677282 585482 178542 542203 131102 872201 177308 
775029 878620 620019 115096 276011 147019 071120 112059 205949 375509 755091 972221 677073 770733 073322 733220 873047 475641 756419 711015 446079 975469 645469 690039 231529 603022 845022 772825 282529 785422 311028 722018 773083 730839 
750293 786200 200191 150966 649283 760111 470191 711205 120594 059492 755091 550915 722218 770733 733220 220873 730475 756419 110153 153433 460797 754691 440153 454690 900396 204283 315296 030228 450223 502233 728252 825292 854220 542203 220313 110287 220183 773083 730839 
502939 001911 509664 492834 432699 601119 701912 112059 205949 594925 550915 509159 707332 208730 101534 534334 444239 607975 546910 401536 546900 690039 003962 042831 152960 302284 502233 022332 282529 252926 542203 422031 203131 102872 201838 730839 
029398 019115 928343 326992 011192 019121 120594 059492 091597 722218 222188 889558 073322 087304 015343 442398 079754 015364 900396 039620 620428 428316 033748 374898 529603 030228 022845 022332 223326 825292 529260 321658 220313 031311 028722 722018 018384 177308 308397 
293987 283432 269927 205949 594925 091597 222188 221889 895588 322087 873047 423986 003962 204283 283167 748987 296030 223326 233267 252926 292603 216585 203131 110287 220183 773083 083976 397697 
939878 699276 949254 915972 889558 955881 332208 220873 730475 239864 039620 831670 033748 374898 489873 030228 332677 641828 416178 102872 201838 730839 839769 976970 
398786 699276 992760 895588 322087 208730 304756 419686 423986 398646 797546 364546 396204 428316 316703 337489 748987 898732 315296 302284 326772 548246 418284 828416 161785 028722 018384 308397 397697 
987862 966492 283432 992760 927601 407112 915972 597222 955881 707332 087304 047564 196863 239864 986464 975469 003962 962042 283167 489873 987323 960302 284502 677282 926032 585482 482464 182841 284161 617854 785422 102872 287220 183841 
878620 834326 071120 972221 073322 733220 208730 873047 475641 968634 398646 864644 454690 039620 831670 898732 873231 228450 845022 772825 854824 824641 828416 841617 178542 854220 028722 287220 872201 838414 976970 
786200 711205 722218 646770 733220 332208 087304 756419 686347 986464 546910 106440 546900 396204 316703 296030 284502 728252 529260 785422 854220 542203 287220 872201 976970 769707 
862001 927601 276011 760111 114701 544071 112059 755091 972221 467707 332208 322087 873047 863471 471101 864644 469106 064401 469003 962042 042831 167033 873231 960302 845022 292603 260321 824641 182841 542203 422031 872201 722018 841441 769707 
620019 276011 760111 601119 147019 440711 112059 120594 550915 722218 221889 677073 322087 220873 756419 634711 711015 446079 691064 644015 645469 690039 620428 428316 670337 603022 926032 603216 828416 422031 220313 722018 220183 730839 
200191 276011 760111 601119 011192 470191 019121 440711 407112 120594 205949 755091 509159 222188 218895 220873 208730 564196 471101 110153 460797 754691 440153 900396 204283 283167 260321 284161 220313 203131 220183 201838 308397 
001911 276011 760111 601119 011192 111921 119211 701912 019121 191215 440711 407112 071120 205949 550915 091597 641968 634711 471101 711015 101534 607975 546910 064401 401536 003962 042831 603216 841617 203131 031311 201838 841441 083976 
019115 760111 601119 011192 119211 192114 019121 191215 912154 407112 071120 711205 059492 550915 509159 218895 419686 347110 711015 110153 015343 079754 469106 644015 015364 039620 732315 022845 032165 216585 416178 031311 313110 018384 414417 
191150 992760 601119 011192 111921 192114 921147 211470 191215 912154 121544 071120 112059 437550 509159 091597 188955 196863 347110 471101 110153 101534 691064 106440 440153 831670 323152 152960 296030 228450 321658 165854 161785 313110 131102 144177 
911509 927601 601119 011192 111921 921147 211470 114701 912154 121544 711205 112059 375509 091597 915972 221889 471101 711015 101534 975469 910644 401536 316703 231529 960302 284502 282529 216585 131102 311028 
115096 011192 111921 119211 114701 147019 215440 112059 120594 755091 915972 218895 144646 564196 419686 711015 110153 015343 015364 900396 167033 315296 845022 825292 165854 311028 110287 
150966 111921 154407 120594 550915 159722 188955 144646 641968 196863 110153 153433 423986 153645 900396 003962 152960 450223 252926 110287 083976 
509664 949254 509159 558814 588144 814464 047564 419686 968634 101534 534334 239864 986464 864644 079754 691064 910644 015364 536454 003962 039620 703374 529603 302284 502233 529260 482464 839769 
096649 432699 205949 492543 091597 144646 475641 756419 196863 686347 015343 398646 864644 646446 446079 797546 910644 106440 153645 690039 039620 396204 033748 296030 022845 292603 824641 397697 
966492 326992 011192 059492 925437 915972 446467 756419 564196 968634 863471 334442 986464 646446 464460 460797 975469 106440 064401 536454 900396 962042 960302 326772 825292 926032 585482 246418 464182 785422 976970 
664928 269927 111921 594925 464677 564196 641968 634711 344423 864644 464460 644607 607975 064401 644015 364546 620428 374898 603022 030228 267728 252926 260321 658548 854824 464182 641828 854220 311028 
649283 699276 119211 949254 646770 677073 641968 419686 344423 444239 646446 644607 644015 440153 645469 469003 204283 748987 489873 529603 302284 450223 502233 677282 529260 603216 548246 641828 418284 542203 110287 220183 441773 773083 
492834 992760 192114 912154 492543 558814 196863 968634 101534 534334 433444 444239 442398 239864 691064 401536 690039 396204 042831 489873 898732 296030 302284 022845 502233 022332 772825 292603 165854 854824 482464 418284 182841 617854 422031 102872 201838 417730 730839 
928343 927601 921147 121544 492543 925437 588144 220873 968634 686347 015343 343344 398646 910644 900396 962042 428316 987323 529603 960302 022845 228450 022332 223326 728252 926032 658548 548246 824641 828416 178542 220313 028722 220183 018384 308397 
283432 211470 215440 059492 925437 881446 707332 073322 208730 863471 153433 433444 334442 986464 003962 283167 898732 873231 323152 296030 603022 228450 284502 022332 223326 233267 282529 926032 585482 482464 246418 284161 785422 203131 287220 201838 183841 083976 
834326 594925 254375 881446 814464 144646 073322 733220 304756 564196 634711 534334 334442 344423 864644 364546 900396 039620 428316 831670 987323 732315 231529 030228 845022 223326 252926 260321 854824 824641 828416 854220 031311 838414 839769 
343269 147019 949254 543755 375509 446467 733220 332208 047564 641968 347110 343344 344423 444239 446079 975469 645469 003962 396204 283167 337489 873231 323152 315296 302284 233267 529260 603216 548246 542203 313110 839769 
432699 470191 112059 492543 437550 464677 332208 475641 419686 433444 444239 442398 446079 460797 754691 454690 039620 831670 337489 732315 231529 332677 282529 292603 032165 482464 422031 730839 839769 397697 
326992 011192 701912 120594 059492 915972 322087 334442 423986 546910 546900 003962 396204 316703 374898 323152 315296 022332 326772 728252 825292 926032 321658 028722 308397 397697 976970 
269927 111921 019121 205949 594925 159722 464677 467707 239864 460797 469106 469003 039620 283167 748987 231529 223326 233267 267728 282529 252926 260321 287220 769707 
699276 119211 191215 949254 597222 646770 677073 419686 398646 646446 607975 797546 469106 691064 690039 396204 489873 315296 677282 529260 603216 548246 083976 
992760 192114 912154 492543 972221 646770 208730 196863 986464 464460 975469 691064 962042 898732 152960 296030 529260 292603 032165 482464 417730 839769 976970 
927601 921147 114701 925437 972221 955881 467707 087304 475641 968634 471101 644607 754691 910644 064401 987323 529603 960302 292603 926032 321658 824641 422031 872201 177308 397697 
276011 147019 470191 544071 440711 755091 972221 677073 873047 475641 756419 634711 471101 711015 446079 546910 644015 873231 296030 926032 260321 216585 246418 284161 422031 220313 203131 031311 872201 722018 773083 976970 
760111 470191 701912 019121 440711 407112 755091 550915 722218 770733 730475 756419 564196 863471 634711 347110 471101 711015 110153 460797 754691 469106 064401 440153 732315 960302 260321 464182 284161 220313 203131 031311 313110 722018 220183 730839 769707 
601119 147019 701912 191215 407112 071120 205949 509159 221889 756419 641968 634711 347110 471101 711015 101534 607975 691064 644015 401536 645469 690039 231529 603022 603216 641828 841617 203131 031311 313110 131102 201838 
011192 470191 701912 019121 912154 407112 071120 711205 059492 091597 915972 218895 073322 564196 471101 711015 110153 015343 015364 003962 323152 315296 022332 825292 032165 464182 416178 031311 313110 131102 311028 028722 018384 
111921 701912 019121 191215 121544 071120 711205 112059 594925 915972 159722 972221 188955 641968 471101 711015 110153 101534 231529 152960 252926 260321 641828 182841 161785 031311 131102 311028 110287 183841 841441 
119211 019121 191215 440711 711205 112059 949254 159722 972221 722218 419686 634711 711015 110153 873231 315296 529260 603216 418284 182841 031311 313110 110287 872201 183841 414417 
192114 191215 912154 121544 407112 112059 120594 492543 722218 222188 558814 588144 196863 347110 110153 101534 691064 396204 732315 152960 302284 292603 032165 165854 482464 182841 313110 131102 102872 722018 838414 384144 144177 
921147 912154 121544 071120 925437 091597 222188 221889 588144 881446 322087 873047 686347 471101 910644 962042 283167 323152 022845 926032 321658 824641 841617 131102 220183 384144 841441 144177 
211470 215440 071120 711205 254375 915972 221889 218895 881446 814464 646770 220873 208730 730475 863471 711015 464460 106440 831670 231529 296030 228450 216585 246418 416178 313110 311028 287220 201838 841441 414417 441773 417730 976970 
114701 154407 544071 440711 711205 112059 159722 814464 144646 467707 304756 634711 471101 110153 644607 754691 064401 316703 284502 824641 182841 284161 161785 131102 110287 872201 183841 414417 144177 417730 177308 769707 
147019 544071 440711 407112 112059 144646 677073 047564 756419 347110 711015 444239 446079 546910 644015 645469 690039 167033 337489 845022 246418 841617 722018 144177 177308 
470191 440711 407112 071120 120594 755091 972221 770733 475641 564196 471101 110153 442398 460797 754691 469106 440153 454690 900396 670337 374898 873231 450223 260321 464182 284161 416178 422031 203131 872201 220183 
701912 407112 711205 205949 550915 915972 722218 707332 756419 641968 711015 101534 607975 546910 401536 003962 703374 748987 732315 603022 728252 603216 841617 785422 031311 131102 102872 722018 201838 
019121 071120 059492 509159 159722 972221 073322 419686 471101 110153 015343 079754 469106 064401 015364 039620 042831 030228 260321 032165 284161 416178 203131 031311 313110 311028 028722 018384 
191215 711205 594925 550915 091597 597222 722218 188955 196863 711015 101534 691064 644015 153645 396204 732315 603216 841617 161785 031311 131102 110287 
912154 112059 949254 509159 915972 972221 222188 588144 814464 968634 110153 986464 079754 910644 440153 015364 536454 962042 323152 302284 032165 165854 482464 418284 416178 617854 313110 018384 384144 
121544 120594 492543 091597 221889 588144 881446 144646 047564 101534 343344 433444 864644 797546 691064 910644 106440 401536 153645 364546 231529 022845 321658 165854 658548 824641 182841 161785 178542 131102 183841 384144 841441 
215440 205949 925437 915972 218895 881446 814464 208730 475641 015343 433444 334442 646446 464460 975469 910644 106440 015364 645469 315296 296030 228450 216585 585482 246418 785422 313110 287220 841441 414417 417730 
154407 059492 925437 254375 159722 814464 144646 446467 464677 467707 756419 153433 334442 344423 464460 644607 754691 106440 064401 153645 454690 152960 284502 854824 854220 131102 110287 414417 144177 177308 769707 
544071 594925 254375 543755 755091 144646 464677 646770 677073 564196 863471 634711 534334 344423 444239 644607 446079 754691 546910 064401 644015 546900 042831 845022 548246 824641 284161 542203 422031 841441 144177 441773 
440711 543755 550915 446467 646770 467707 770733 475641 634711 347110 471101 444239 442398 446079 460797 546910 644015 440153 042831 428316 450223 260321 246418 841617 422031 220313 031311 841441 414417 441773 417730 
407112 437550 509159 597222 467707 707332 347110 471101 607975 469106 440153 401536 003962 428316 323152 603022 677282 603216 464182 416178 203131 313110 131102 102872 414417 417730 
071120 091597 972221 073322 733220 347110 471101 079754 039620 831670 231529 030228 772825 032165 641828 854220 031311 313110 131102 311028 028722 287220 976970 
711205 722218 218895 733220 332208 730475 471101 711015 396204 316703 732315 315296 772825 728252 216585 418284 161785 542203 131102 311028 110287 872201 769707 
112059 509159 188955 322087 711015 110153 446079 690039 962042 167033 152960 282529 165854 182841 617854 422031 311028 110287 102872 722018 
120594 091597 220873 047564 110153 101534 460797 910644 900396 620428 825292 165854 178542 220313 110287 220183 
205949 375509 509159 915972 221889 208730 475641 015343 607975 975469 106440 645469 003962 204283 231529 282529 252926 203131 201838 
059492 755091 091597 159722 073322 756419 153433 334442 079754 754691 064401 454690 003962 039620 022332 825292 585482 785422 028722 
594925 550915 597222 188955 564196 534334 344423 607975 546910 644015 546900 772825 252926 854824 854220 
949254 509159 972221 889558 047564 968634 343344 444239 239864 986464 079754 910644 440153 536454 396204 302284 728252 529260 165854 548246 418284 617854 542203 
492543 091597 895588 475641 196863 015343 433444 442398 398646 797546 440153 401536 364546 469003 962042 489873 022845 450223 502233 282529 292603 658548 482464 182841 178542 542203 422031 441773 
925437 915972 955881 446467 322087 968634 153433 986464 975469 645469 620428 670337 228450 022332 825292 926032 585482 828416 785422 422031 414417 
254375 218895 464677 220873 730475 534334 607975 754691 644015 153645 454690 204283 703374 732315 284502 223326 252926 260321 216585 854824 284161 854220 220313 144177 
543755 188955 646770 304756 343344 079754 546910 644015 440153 153645 536454 546900 033748 323152 548246 161785 542203 441773 
437550 889558 467707 733220 047564 347110 433444 464460 797546 440153 401536 536454 454690 039620 831670 337489 231529 228450 617854 287220 417730 
375509 895588 332208 475641 471101 975469 364546 645469 396204 316703 337489 374898 231529 315296 284502 282529 178542 872201 177308 
755091 955881 475641 756419 711015 754691 454690 315296 845022 825292 785422 422031 722018 773083 
550915 188955 558814 730475 756419 711015 607975 546910 644015 153645 546900 732315 152960 450223 252926 220313 
509159 889558 588144 304756 564196 110153 079754 469106 440153 536454 323152 529603 502233 529260 203131 839769 
091597 895588 047564 101534 460797 797546 691064 401536 231529 841617 031311 308397 397697 
915972 955881 015343 607975 975469 910644 015364 003962 962042 315296 960302 845022 326772 825292 926032 585482 416178 785422 102872 083976 976970 
159722 073322 153433 079754 153645 039620 898732 152960 603022 845022 450223 326772 267728 252926 854824 161785 178542 785422 854220 131102 102872 028722 839769 769707 
597222 707332 073322 733220 797546 396204 898732 987323 603022 030228 845022 450223 502233 267728 677282 728252 825292 529260 585482 548246 785422 854220 542203 028722 287220 397697 
972221 955881 073322 733220 332208 475641 471101 975469 962042 042831 987323 873231 030228 302284 450223 502233 677282 772825 282529 252926 260321 182841 854220 542203 422031 287220 872201 976970 
722218 733220 332208 322087 756419 711015 442398 620428 428316 732315 030228 302284 022845 502233 022332 772825 728252 825292 529260 603216 321658 246418 828416 542203 422031 220313 872201 722018 
222188 332208 322087 220873 442398 423986 620428 204283 283167 323152 302284 022845 228450 022332 223326 267728 282529 252926 292603 032165 321658 216585 246418 464182 284161 416178 422031 220313 203131 722018 220183 201838 
221889 322087 220873 423986 239864 204283 337489 231529 022845 228450 223326 282529 321658 216585 641828 161785 220313 220183 201838 730839 
218895 220873 208730 711015 239864 374898 315296 022845 228450 772825 216585 418284 617854 201838 018384 308397 
188955 110153 607975 153645 748987 152960 228450 728252 165854 182841 161785 178542 183841 083976 
889558 079754 489873 284502 282529 321658 658548 839769 
895588 797546 898732 845022 825292 216585 658548 585482 
955881 475641 975469 754691 042831 165854 585482 854824 182841 183841 
558814 756419 968634 534334 239864 546910 536454 428316 165854 658548 854824 548246 418284 828416 617854 018384 838414 
588144 087304 564196 968634 686347 534334 343344 433444 398646 986464 864644 910644 536454 283167 658548 585482 548246 482464 418284 182841 284161 178542 018384 183841 838414 384144 
881446 873047 686347 863471 433444 334442 398646 986464 864644 646446 797546 106440 401536 364546 831670 585482 548246 482464 824641 182841 828416 841617 785422 183841 838414 384144 841441 083976 
814464 047564 863471 534334 433444 334442 344423 239864 986464 864644 464460 975469 691064 910644 064401 015364 536454 645469 854824 482464 824641 418284 828416 284161 617854 854220 018384 838414 384144 841441 414417 839769 
144646 304756 475641 564196 419686 343344 334442 344423 444239 398646 864644 646446 644607 797546 754691 910644 106440 644015 153645 364546 454690 548246 824641 182841 841617 178542 183841 384144 841441 144177 
446467 047564 756419 641968 196863 686347 433444 344423 444239 442398 986464 646446 464460 644607 446079 460797 975469 546910 106440 440153 536454 645469 546900 283167 748987 233267 482464 246418 841617 416178 841441 414417 144177 441773 
464677 475641 564196 419686 968634 863471 444239 864644 464460 644607 446079 460797 754691 469106 064401 364546 454690 469003 831670 489873 332677 824641 464182 841617 416178 414417 144177 441773 397697 769707 
646770 208730 641968 686347 634711 347110 646446 644607 446079 607975 546910 106440 644015 645469 546900 831670 316703 296030 326772 246418 641828 416178 144177 441773 417730 976970 
467707 087304 471101 464460 644607 460797 469106 064401 469003 316703 167033 960302 267728 464182 161785 414417 441773 417730 177308 397697 769707 
677073 220873 873047 446079 607975 691064 644015 469003 690039 167033 670337 489873 987323 603022 677282 617854 441773 177308 773083 976970 
770733 220873 208730 730475 110153 153433 460797 079754 440153 690039 316703 167033 670337 898732 873231 450223 502233 772825 220313 220183 441773 417730 773083 730839 769707 
707332 208730 087304 101534 534334 607975 797546 401536 900396 003962 167033 670337 703374 898732 987323 732315 960302 603022 502233 022332 677282 728252 926032 785422 203131 102872 201838 417730 177308 730839 308397 
073322 087304 873047 015343 343344 079754 015364 003962 039620 670337 703374 033748 987323 873231 323152 960302 603022 030228 845022 022332 223326 677282 772825 260321 178542 785422 031311 028722 018384 177308 773083 083976 
733220 730475 433444 039620 831670 703374 033748 873231 732315 231529 603022 030228 450223 223326 233267 772825 728252 529260 603216 785422 854220 313110 287220 773083 730839 
332208 334442 442398 396204 316703 033748 337489 374898 732315 315296 030228 302284 502233 233267 332677 292603 032165 321658 542203 131102 311028 872201 722018 177308 
322087 423986 962042 337489 748987 323152 302284 022845 022332 332677 326772 926032 321658 422031 311028 110287 722018 220183 773083 308397 397697 
220873 196863 110153 239864 440153 620428 204283 489873 529603 022845 228450 450223 223326 326772 292603 260321 220313 102872 220183 201838 441773 730839 
208730 968634 101534 106440 401536 204283 898732 296030 228450 502233 267728 203131 028722 287220 201838 417730 308397 
087304 686347 015343 534334 343344 986464 079754 064401 015364 396204 703374 987323 960302 284502 022332 482464 617854 031311 287220 018384 384144 177308 083976 
873047 686347 863471 343344 433444 864644 153645 962042 283167 670337 033748 873231 603022 845022 233267 824641 841617 178542 872201 183841 841441 773083 
730475 863471 711015 433444 334442 607975 536454 620428 831670 703374 337489 732315 030228 332677 772825 032165 785422 838414 730839 
304756 634711 334442 344423 398646 079754 401536 364546 900396 204283 316703 374898 323152 315296 302284 326772 603216 321658 384144 308397 
047564 347110 101534 343344 239864 986464 079754 797546 691064 015364 645469 003962 042831 032165 482464 617854 018384 
475641 471101 015343 433444 398646 864644 975469 754691 910644 153645 454690 873231 824641 182841 178542 422031 872201 183841 841441 
756419 711015 153433 986464 646446 446079 975469 754691 546910 106440 536454 645469 337489 732315 246418 828416 785422 722018 838414 414417 730839 
564196 534334 864644 464460 460797 754691 469106 064401 364546 454690 900396 374898 315296 548246 464182 284161 384144 144177 
641968 442398 646446 644607 607975 546910 691064 644015 645469 546900 003962 620428 748987 152960 321658 658548 246418 641828 841617 311028 201838 841441 441773 
419686 423986 398646 469106 910644 401536 454690 469003 039620 428316 489873 315296 529603 216585 464182 418284 416178 110287 018384 414417 417730 
196863 110153 153433 239864 986464 691064 106440 396204 316703 167033 489873 152960 296030 292603 165854 182841 102872 183841 
968634 101534 534334 398646 986464 864644 910644 962042 167033 898732 960302 926032 165854 418284 018384 838414 
686347 015343 343344 986464 646446 644607 106440 283167 670337 987323 658548 182841 183841 384144 308397 
863471 153433 433444 864644 464460 064401 831670 703374 873231 260321 824641 828416 203131 872201 183841 838414 841441 083976 
634711 534334 334442 644607 754691 064401 644015 033748 732315 603216 824641 284161 031311 838414 414417 839769 
347110 343344 344423 546910 644015 440153 546900 337489 323152 246418 841617 313110 287220 384144 144177 417730 397697 
471101 469106 064401 440153 401536 469003 873231 464182 284161 416178 422031 203131 031311 131102 872201 841441 441773 177308 
711015 691064 644015 732315 772825 216585 841617 161785 031311 313110 311028 722018 414417 773083 
110153 910644 440153 316703 167033 323152 450223 165854 416178 617854 220313 313110 131102 110287 220183 144177 
101534 691064 106440 401536 167033 703374 231529 302284 502233 165854 161785 178542 203131 131102 102872 201838 
015343 910644 015364 316703 033748 987323 315296 022845 022332 220313 031311 018384 
153433 106440 153645 167033 873231 152960 450223 502233 203131 183841 773083 
534334 239864 864644 015364 536454 670337 703374 732315 502233 022332 854824 031311 018384 838414 384144 730839 
343344 398646 864644 646446 910644 015364 153645 364546 396204 703374 033748 323152 302284 223326 548246 313110 018384 183841 384144 841441 308397 
433444 239864 986464 864644 646446 464460 910644 106440 153645 536454 703374 033748 337489 233267 482464 418284 183841 838414 384144 841441 414417 
334442 398646 864644 646446 464460 106440 064401 536454 364546 962042 033748 337489 374898 323152 284502 332677 326772 585482 824641 464182 178542 785422 131102 838414 384144 841441 414417 
344423 646446 464460 644607 064401 644015 440153 364546 645469 620428 204283 316703 337489 374898 987323 845022 450223 854824 246418 641828 785422 854220 542203 311028 384144 841441 414417 144177 441773 
444239 464460 644607 446079 644015 440153 401536 645469 454690 690039 204283 042831 873231 450223 502233 548246 464182 418284 854220 542203 422031 414417 144177 441773 417730 730839 
442398 446079 460797 440153 454690 900396 042831 428316 374898 732315 022332 482464 246418 641828 416178 542203 422031 722018 441773 177308 308397 
423986 469106 401536 003962 428316 748987 323152 223326 252926 603216 464182 418284 828416 422031 220183 773083 083976 
239864 079754 691064 015364 536454 039620 283167 489873 231529 233267 529260 032165 165854 854824 482464 284161 617854 201838 838414 730839 839769 
398646 797546 910644 153645 364546 396204 428316 898732 315296 332677 292603 321658 658548 548246 824641 828416 178542 384144 308397 397697 
986464 975469 691064 910644 106440 015364 536454 645469 396204 283167 987323 926032 585482 482464 246418 284161 785422 838414 384144 976970 
864644 754691 910644 064401 153645 364546 454690 962042 831670 165854 854824 824641 464182 841617 854220 838414 384144 841441 
646446 797546 546910 106440 644015 536454 364546 645469 546900 620428 603216 658548 548246 246418 641828 828416 841441 
464460 975469 469106 106440 064401 364546 645469 454690 469003 152960 228450 529260 482464 464182 284161 854220 414417 417730 
644607 754691 064401 644015 645469 454690 546900 670337 748987 529603 284502 332677 292603 824641 641828 841617 542203 414417 144177 397697 769707 
446079 546910 644015 440153 645469 546900 469003 690039 489873 296030 845022 326772 926032 246418 416178 422031 144177 441773 976970 
460797 469106 440153 454690 469003 900396 670337 960302 450223 267728 260321 464182 161785 110287 414417 441773 417730 308397 397697 769707 
607975 644015 003962 703374 603022 677282 603216 617854 102872 083976 976970 
079754 015364 536454 039620 033748 165854 617854 028722 018384 839769 769707 
797546 401536 364546 658548 548246 178542 397697 
975469 015364 645469 337489 585482 482464 785422 839769 976970 
754691 064401 153645 454690 374898 854824 824641 284161 854220 397697 
546910 644015 536454 546900 748987 152960 296030 529260 548246 246418 841617 542203 313110 976970 
469106 440153 401536 364546 469003 428316 489873 529603 960302 464182 416178 131102 769707 
691064 015364 645469 690039 396204 296030 603022 482464 641828 617854 311028 
910644 015364 153645 900396 962042 960302 824641 418284 617854 110287 018384 384144 
106440 153645 536454 546900 152960 296030 228450 246418 182841 178542 102872 183841 841441 976970 
064401 364546 469003 042831 960302 284502 260321 824641 464182 284161 031311 872201 841441 414417 769707 
644015 645469 690039 732315 603022 845022 603216 246418 641828 841617 722018 414417 144177 
440153 469003 489873 323152 450223 464182 416178 542203 220313 220183 144177 441773 
401536 900396 428316 231529 502233 603216 422031 203131 201838 441773 417730 
015364 003962 703374 315296 022332 032165 165854 482464 418284 617854 031311 018384 
153645 033748 152960 022845 658548 824641 182841 161785 178542 183841 
536454 396204 337489 228450 165854 585482 482464 246418 617854 838414 
364546 962042 374898 315296 284502 658548 548246 824641 464182 178542 384144 
645469 620428 337489 845022 585482 482464 246418 641828 785422 841441 839769 
454690 039620 831670 374898 152960 450223 854824 824641 464182 854220 414417 417730 397697 
546900 396204 316703 748987 152960 529603 296030 529260 548246 246418 542203 976970 
469003 962042 316703 167033 489873 529603 960302 450223 292603 464182 542203 422031 441773 773083 769707 
690039 620428 167033 670337 898732 296030 603022 926032 422031 730839 
900396 428316 670337 703374 987323 315296 960302 223326 260321 603216 220313 308397 
003962 283167 703374 033748 323152 152960 603022 022332 233267 603216 032165 203131 102872 028722 083976 
039620 831670 033748 231529 529603 030228 332677 529260 032165 854220 031311 028722 287220 839769 
396204 316703 315296 296030 302284 326772 292603 418284 542203 872201 384144 397697 
962042 167033 960302 603022 022845 845022 022332 926032 464182 182841 178542 422031 102872 722018 
620428 670337 603022 030228 228450 450223 223326 267728 260321 321658 658548 246418 641828 828416 785422 220313 311028 028722 722018 220183 
204283 302284 284502 450223 502233 233267 677282 292603 603216 216585 464182 418284 284161 854220 542203 220313 203131 110287 287220 220183 201838 773083 
042831 873231 022845 502233 022332 772825 032165 641828 182841 542203 422031 203131 031311 102872 872201 201838 183841 841441 730839 
428316 732315 228450 022332 223326 728252 603216 548246 418284 828416 422031 220313 031311 028722 722018 018384 838414 414417 308397 
283167 323152 284502 223326 233267 282529 032165 482464 284161 203131 313110 287220 220183 183841 384144 144177 083976 
831670 231529 332677 321658 824641 841617 854220 031311 131102 838414 841441 441773 839769 976970 
316703 315296 529603 326772 292603 216585 416178 542203 313110 311028 441773 417730 769707 
167033 987323 296030 502233 267728 926032 165854 161785 422031 417730 177308 773083 
670337 873231 960302 022332 677282 260321 220313 110287 177308 730839 308397 
703374 732315 603022 302284 223326 603216 203131 102872 018384 773083 308397 083976 
033748 030228 022845 233267 267728 032165 658548 031311 028722 183841 083976 839769 
337489 231529 302284 332677 677282 585482 838414 730839 839769 397697 
374898 315296 772825 321658 854824 641828 311028 201838 384144 177308 308397 397697 
748987 728252 548246 418284 841617 110287 018384 144177 773083 308397 769707 
489873 529603 450223 482464 182841 416178 102872 183841 441773 083976 
898732 296030 845022 022332 326772 728252 825292 926032 828416 178542 028722 838414 417730 839769 
987323 960302 450223 223326 267728 282529 260321 785422 220313 287220 177308 
873231 502233 233267 677282 825292 603216 824641 854220 422031 203131 872201 183841 841441 773083 
732315 022845 022332 332677 772825 032165 220313 031311 722018 838414 730839 
323152 603022 228450 022332 223326 326772 728252 825292 926032 321658 464182 203131 313110 131102 028722 220183 384144 
231529 030228 284502 223326 233267 267728 282529 252926 260321 216585 641828 031311 131102 311028 287220 201838 730839 839769 
315296 302284 825292 603216 548246 418284 313110 311028 110287 308397 397697 
152960 252926 529260 032165 482464 182841 854220 102872 976970 
529603 502233 529260 292603 321658 824641 542203 220313 220183 769707 
296030 228450 292603 926032 216585 246418 422031 203131 287220 201838 417730 976970 
960302 284502 022332 926032 260321 464182 220313 131102 177308 769707 
603022 845022 223326 677282 926032 603216 641828 785422 203131 311028 102872 028722 773083 
030228 450223 233267 267728 260321 032165 641828 854220 031311 311028 110287 028722 287220 730839 
302284 502233 332677 677282 603216 482464 418284 542203 110287 102872 872201 018384 384144 308397 
022845 022332 772825 032165 824641 182841 422031 102872 028722 722018 183841 
228450 223326 728252 529260 321658 246418 828416 220313 028722 287220 220183 838414 
284502 282529 292603 216585 585482 464182 284161 178542 785422 131102 287220 384144 
845022 825292 926032 585482 854824 641828 841617 785422 854220 311028 028722 841441 
450223 252926 260321 854824 418284 854220 542203 220313 110287 287220 220183 441773 
502233 529260 292603 603216 548246 542203 422031 203131 102872 872201 201838 
022332 728252 825292 926032 032165 422031 220313 031311 102872 028722 722018 018384 
223326 282529 252926 260321 603216 828416 220313 203131 028722 287220 220183 083976 
233267 529260 603216 032165 284161 203131 110287 287220 839769 
332677 292603 032165 321658 841617 102872 144177 308397 397697 
326772 825292 926032 321658 416178 102872 028722 441773 976970 
267728 252926 260321 246418 641828 161785 311028 028722 287220 201838 417730 177308 769707 
677282 603216 585482 464182 418284 617854 178542 110287 287220 872201 177308 773083 
772825 032165 854824 641828 182841 785422 102872 872201 722018 773083 730839 
728252 926032 321658 548246 418284 828416 178542 785422 028722 722018 
282529 260321 216585 482464 182841 284161 785422 287220 
825292 585482 824641 828416 785422 854220 028722 872201 
252926 854824 854220 287220 083976 
529260 548246 854220 542203 287220 839769 
292603 542203 220313 872201 220183 397697 
926032 422031 028722 722018 976970 
260321 284161 220313 203131 031311 287220 220183 
603216 548246 828416 203131 313110 083976 
032165 482464 284161 031311 131102 839769 
321658 824641 641828 841617 311028 722018 201838 397697 
216585 246418 418284 416178 161785 110287 220183 018384 
165854 182841 161785 617854 102872 183841 
658548 641828 178542 
585482 464182 785422 
854824 641828 617854 854220 838414 384144 
548246 418284 828416 178542 542203 841441 
482464 182841 284161 785422 422031 838414 384144 414417 
824641 828416 284161 841617 854220 422031 872201 183841 384144 841441 
246418 841617 416178 220313 722018 201838 838414 841441 414417 
464182 416178 161785 131102 220183 384144 414417 144177 
641828 617854 311028 201838 841441 441773 
418284 617854 110287 018384 838414 414417 417730 
182841 178542 422031 102872 872201 183841 384144 841441 
828416 220313 028722 722018 838414 841441 414417 
284161 203131 287220 220183 183841 384144 144177 
841617 031311 838414 841441 414417 144177 441773 397697 
416178 313110 311028 414417 144177 441773 417730 976970 
161785 131102 110287 441773 769707 
617854 018384 417730 
178542 131102 102872 028722 183841 177308 
785422 028722 287220 
854220 287220 872201 
542203 872201 441773 
422031 872201 722018 417730 
220313 722018 220183 
203131 220183 201838 183841 
031311 018384 838414 841441 
313110 384144 414417 417730 
131102 144177 177308 
311028 722018 201838 
110287 220183 018384 414417 144177 
102872 201838 183841 144177 
028722 018384 
287220 417730 
872201 841441 177308 
722018 773083 
220183 773083 
201838 730839 
018384 308397 
183841 083976 
838414 839769 
<------------Next-300-Signals------------>
548761 838737 738271 258798 545205 572281 108783 540583 920721 062731 047567 567351 518507 143707 208621 580763 398264 643601 341712 446731 444164 649730 127161 618331 522724 553862 538620 524716 247160 016771 908811 537735 540235 235561 348845 648730 248712 
487612 387373 737382 382712 587988 798812 087837 207213 627317 475673 437078 789362 086212 807639 982643 436012 341712 417124 467314 441649 497301 973012 271618 183316 331692 286852 386202 313512 397452 471601 167713 088119 557092 355612 488450 487306 730632 248712 487125 712512 
876129 873738 373827 827125 879881 988125 878373 753029 302929 072130 273170 370789 893620 862125 807639 076398 826436 360123 417124 673144 730127 716183 833169 316928 868522 862025 135126 436939 974524 677133 771339 088119 881193 570926 926279 279069 556124 873063 306324 487125 871251 
761298 738271 271258 258798 881254 057228 530292 029292 721306 731704 707893 936208 621257 076398 763982 601234 171244 731444 301271 271618 161833 331692 169286 351264 369397 745247 771339 713390 881193 709262 262790 790690 561242 063244 244248 871251 
612983 712587 587988 812545 572281 108783 540583 302929 292920 362086 212574 763982 982643 012341 712446 164973 012716 716183 618331 316928 692868 942433 512643 643693 693974 677133 811935 119353 627906 612420 632442 442487 712512 
129838 125879 879881 125452 722810 228108 810878 087837 405838 029292 929207 620862 125743 639826 826436 123417 124467 649730 127161 161833 169286 692868 805538 424331 126436 133908 339088 119353 193537 124205 527348 424871 
298387 712587 258798 798812 228108 281087 108783 878373 058389 292920 292072 627317 518507 208621 398264 264360 497301 618331 928685 055386 243313 264369 369397 390881 193537 935377 092627 273488 046487 442487 248712 
983873 125879 988125 810878 087837 878373 783735 583897 389753 306273 273170 475673 185071 707893 580763 982643 244673 164973 973012 161833 183316 286852 580553 553862 942433 243313 643693 693974 908811 881193 935377 353773 926279 205273 464873 873063 424871 
838737 258798 108783 087837 878373 783735 837354 838975 897530 130627 062731 731704 756735 518507 850714 071437 143707 078936 807639 826436 446731 649730 730127 618331 833169 868522 805538 538620 433135 436939 939745 811935 193537 935377 537735 052734 648730 730632 248712 
387373 587988 087837 878373 837354 389753 207213 306273 627317 317047 475673 567351 185071 507143 714370 437078 707893 789362 574343 580763 982643 360123 244673 467314 164973 497301 301271 183316 580553 386202 243313 331351 369397 397452 167713 677133 881193 119353 935377 353773 377355 205273 527348 464873 487306 306324 487125 
873738 271258 258798 879881 810878 878373 783735 373540 405838 897530 072130 062731 273170 756735 673518 850714 071437 143707 370789 078936 893620 743432 807639 076398 826436 446731 673144 649730 973012 271618 833169 272458 805538 433135 677133 771339 133908 811935 193537 353773 537735 773557 052734 273488 648730 873063 871251 
737382 712587 587988 798812 837354 735405 058389 975302 530292 721306 627317 731704 567351 735185 714370 437078 707893 789362 743432 434324 763982 436012 467314 731444 497301 730127 716183 331692 724580 055386 331351 397452 771339 713390 339088 935377 537735 377355 735570 557092 709262 527348 734884 487306 730632 632442 712512 
373827 879881 087837 373540 583897 753029 302929 130627 273170 317047 673518 351850 071437 143707 370789 893620 343245 505807 639826 360123 123417 673144 973012 730127 316928 685227 553862 313512 369397 974524 390881 193537 353773 377355 773557 570926 092627 420527 273488 348845 873063 306324 324424 
738271 798812 572281 878373 735405 838975 530292 306273 731704 735185 185071 714370 437078 936208 208621 058076 398264 234171 731444 730127 301271 618331 852272 538620 331351 745247 452471 716011 016771 908811 935377 735570 709262 926279 235561 205273 734884 730632 424871 871251 
382712 798812 205722 722810 783735 389753 302929 292072 062731 850714 370789 789362 362086 086212 580763 982643 436012 341712 973012 012716 183316 331692 286852 852272 522724 386202 313512 397452 524716 167713 088119 353773 355709 262790 355612 242052 052734 632442 248712 712512 
827125 988125 812545 057228 228108 837354 838975 897530 920721 627317 735185 507143 893620 862125 324505 807639 826436 360123 417124 730127 127161 833169 928685 868522 522724 227245 862025 433135 135126 247160 677133 881193 811935 537735 377355 627906 064625 556124 124205 420527 527348 324424 487125 
271258 881254 057228 572281 228108 281087 354058 207213 273170 673518 351850 071437 936208 621257 245058 076398 601234 171244 301271 271618 286852 227245 272458 620259 331351 351264 471601 771339 377355 773557 279069 646254 561242 242052 205273 273488 244248 871251 
712587 812545 452057 572281 722810 281087 540583 317047 047567 735185 518507 714370 362086 212574 450580 763982 012341 712446 416497 730127 012716 716183 724580 202594 313512 512643 745247 716011 110167 713390 193537 773557 735570 092627 462540 612420 420527 734884 046487 442487 712512 
125879 125452 520572 722810 810878 405838 170475 475673 185071 620862 125743 505807 123417 124467 164973 127161 161833 245805 620259 025942 135126 126436 101677 935377 735570 355709 926279 625402 124205 205273 464873 424871 
258798 254520 205722 057228 228108 108783 354058 058389 756735 850714 208621 257434 245058 058076 076398 271618 272458 458055 202594 259424 353773 355709 557092 262790 254023 052734 273488 648730 244248 248712 
587988 057228 572281 281087 087837 540583 583897 567351 507143 437078 580763 763982 316928 580553 133908 339088 537735 557092 570926 627906 527348 273488 504648 487306 487125 
879881 572281 810878 878373 370789 639826 169286 471601 339088 390881 908811 279069 273488 734884 873063 424871 871251 
798812 722810 292072 707893 789362 620862 086212 743432 763982 398264 436012 341712 973012 692868 286852 868522 553862 313512 397452 716011 390881 908811 088119 709262 790690 355612 734884 348845 730632 248712 712512 
988125 228108 783735 838975 920721 735185 208621 862125 982643 360123 417124 730127 928685 868522 685227 458055 538620 862025 433135 135126 939745 974524 908811 088119 881193 064625 556124 348845 488450 487125 
881254 281087 837354 389753 731704 351850 850714 086212 621257 398264 601234 171244 731444 301271 286852 685227 852272 580553 386202 620259 331351 351264 881193 811935 646254 561242 488450 884504 063244 871251 
812545 810878 373540 838975 897530 317047 518507 862125 212574 343245 324505 982643 012341 712446 314441 012716 868522 852272 227245 805538 862025 202594 313512 512643 939745 811935 462540 402355 612420 348845 884504 845046 632442 712512 
125452 735405 975302 029292 170475 185071 620862 621257 125743 743432 432450 245058 826436 123417 124467 144416 127161 286852 272458 620259 025942 135126 126436 397452 119353 906462 625402 023556 355612 124205 242052 488450 632442 324424 
254520 373540 354058 897530 753029 292920 273170 351850 714370 893620 208621 212574 257434 434324 324505 450580 264360 234171 244673 868522 724580 538620 202594 259424 264369 974524 247160 735570 262790 064625 462540 254023 235561 556124 612420 420527 884504 324424 244248 
545205 735405 540583 975302 530292 929207 735185 518507 143707 936208 343245 324505 245058 505807 643601 685227 227245 245805 386202 594243 745247 537735 355709 646254 625402 540235 561242 124205 205273 348845 845046 244248 
452057 281087 354058 753029 292072 317047 351850 437078 362086 621257 432450 245058 450580 058076 436012 416497 852272 272458 458055 862025 452471 773557 557092 092627 462540 254023 402355 242052 420527 052734 488450 450464 442487 
520572 810878 540583 530292 029292 292072 920721 170475 518507 620862 212574 324505 450580 580763 868522 852272 522724 724580 580553 553862 620259 025942 313512 524716 735570 557092 570926 926279 625402 540235 023556 561242 420527 527348 730632 424871 712512 
205722 108783 405838 975302 302929 292920 292072 920721 207213 213062 704756 208621 125743 245058 505807 341712 286852 868522 685227 522724 245805 805538 202594 025942 259424 135126 355709 709262 262790 906462 625402 254023 235561 355612 242052 205273 306324 248712 
057228 087837 354058 058389 753029 029292 207213 047567 437078 936208 086212 257434 058076 076398 417124 316928 685227 852272 227245 055386 259424 351264 557092 092627 064625 254023 556124 052734 527348 063244 244248 487125 
572281 540583 530292 072130 062731 567351 370789 362086 574343 012341 171244 301271 169286 852272 522724 272458 594243 512643 452471 471601 390881 570926 540235 561242 273488 442487 871251 
722810 292920 072130 721306 627317 351850 714370 707893 620862 432450 123417 712446 012716 692868 522724 724580 524716 716011 160110 713390 908811 735570 262790 790690 462540 612420 734884 424871 712512 
228108 929207 721306 273170 518507 936208 208621 324505 245058 234171 127161 271618 928685 227245 272458 245805 247160 601101 133908 088119 627906 625402 124205 527348 273488 244248 248712 
281087 583897 292072 213062 317047 185071 071437 362086 621257 245058 271618 286852 685227 011016 101677 339088 881193 279069 254023 242052 273488 046487 442487 
810878 405838 838975 170475 850714 714370 437078 620862 212574 316928 692868 852272 805538 110167 016771 390881 811935 464873 424871 
108783 540583 058389 389753 207213 306273 704756 507143 143707 370789 707893 208621 125743 580763 164973 716183 161833 169286 928685 101677 167713 908811 119353 353773 205273 648730 248712 
087837 405838 583897 897530 072130 062731 627317 317047 047567 071437 707893 078936 086212 257434 505807 807639 161833 286852 685227 677133 088119 193537 537735 092627 052734 046487 487306 487125 
878373 058389 838975 975302 306273 273170 170475 475673 714370 078936 574343 058076 076398 244673 164973 618331 868522 852272 243313 677133 771339 881193 119353 935377 353773 377355 205273 464873 873063 871251 
783735 583897 389753 753029 062731 731704 704756 756735 735185 143707 789362 743432 343245 580763 763982 446731 649730 183316 433135 939745 771339 713390 811935 193537 353773 537735 773557 540235 052734 648730 730632 487125 
837354 838975 897530 627317 731704 567351 850714 437078 257434 434324 432450 807639 417124 467314 731444 497301 833169 331351 397452 119353 935377 537735 377355 646254 402355 527348 734884 884504 487306 306324 871251 
373540 897530 072130 273170 317047 673518 351850 370789 893620 574343 343245 324505 450580 171244 673144 314441 973012 724580 313512 974524 713390 193537 353773 377355 773557 735570 462540 023556 273488 348845 873063 063244 
735405 838975 975302 721306 731704 170475 756735 735185 936208 743432 432450 324505 505807 712446 731444 730127 245805 433135 135126 939745 745247 133908 935377 537735 735570 355709 625402 235561 124205 734884 730632 632442 
354058 389753 753029 317047 704756 351850 437078 362086 324505 245058 058076 314441 316928 272458 458055 331351 351264 397452 339088 353773 377355 355709 557092 254023 355612 242052 504648 324424 244248 
540583 530292 047567 518507 507143 370789 574343 450580 580763 360123 244673 716183 724580 580553 594243 942433 243313 512643 643693 390881 570926 540235 420527 046487 442487 
405838 475673 437078 707893 245058 505807 807639 601234 446731 161833 692868 245805 805538 424331 433135 436939 908811 402355 205273 504648 464873 424871 
058389 753029 370789 078936 450580 058076 076398 012341 618331 928685 458055 055386 264369 771339 088119 355709 052734 046487 
583897 530292 518507 143707 707893 505807 580763 123417 416497 183316 286852 685227 580553 553862 643693 369397 713390 881193 193537 773557 557092 
838975 170475 735185 437078 078936 862125 058076 234171 164973 833169 928685 868522 852272 458055 538620 862025 433135 436939 693974 939745 133908 811935 935377 537735 735570 348845 
389753 306273 704756 351850 370789 789362 125743 580763 982643 360123 341712 649730 286852 580553 386202 331351 369397 939745 397452 167713 339088 881193 119353 353773 377355 355709 488450 
897530 292920 072130 047567 893620 257434 450580 807639 826436 649730 497301 868522 724580 805538 397452 247160 677133 811935 193537 537735 735570 790690 462540 884504 648730 
975302 929207 721306 475673 789362 936208 574343 505807 076398 497301 973012 245805 055386 386202 025942 974524 471601 771339 935377 377355 355709 906906 906462 625402 355612 487306 
753029 213062 756735 893620 743432 058076 763982 973012 730127 833169 458055 553862 862025 259424 716011 771339 713390 353773 773557 355709 557092 279069 254023 556124 873063 
530292 130627 936208 620862 086212 580763 436012 730127 331692 852272 580553 553862 538620 386202 620259 594243 537735 557092 570926 709262 790690 540235 561242 730632 632442 
302929 306273 370789 362086 208621 862125 807639 360123 301271 316928 522724 862025 202594 436939 355709 570926 092627 906906 402355 612420 306324 324424 
029292 789362 620862 086212 621257 076398 331692 169286 852272 227245 386202 620259 025942 369397 557092 709262 926279 069064 625402 023556 561242 124205 063244 
292920 273170 893620 208621 862125 212574 432450 264360 316928 692868 522724 272458 538620 862025 202594 259424 693974 247160 570926 092627 262790 790690 462540 254023 612420 242052 
929207 627317 518507 143707 936208 621257 324505 505807 123417 124467 169286 928685 685227 227245 386202 620259 369397 939745 745247 935377 709262 926279 627906 906906 625402 124205 420527 
292072 273170 185071 437078 362086 212574 245058 058076 436012 234171 244673 973012 692868 286852 852272 272458 862025 202594 693974 397452 452471 557092 092627 262790 279069 254023 242052 205273 632442 248712 712512 
920721 062731 850714 370789 620862 208621 125743 580763 360123 446731 730127 127161 928685 522724 620259 424331 939745 974524 524716 016771 390881 908811 570926 926279 420527 324424 424871 
207213 627317 507143 707893 208621 086212 257434 807639 601234 244673 467314 301271 271618 227245 202594 594243 243313 247160 167713 677133 908811 709262 254023 205273 244248 248712 
072130 273170 071437 078936 862125 432450 076398 012341 673144 649730 012716 272458 942433 433135 247160 160110 677133 771339 088119 092627 262790 462540 612420 052734 648730 
721306 731704 704756 714370 789362 621257 324505 826436 712446 731444 497301 183316 724580 055386 424331 331351 126436 524716 471601 601101 011016 771339 713390 627906 906906 625402 023556 124205 527348 487306 
213062 317047 789362 620862 212574 743432 245058 763982 264360 436012 973012 833169 286852 553862 243313 313512 264369 247160 716011 011016 110167 713390 557092 709262 279069 069064 906462 254023 235561 242052 273488 873063 248712 712512 
130627 170475 143707 893620 208621 434324 639826 360123 123417 124467 730127 331692 685227 538620 135126 160110 110167 101677 133908 193537 935377 570926 092627 790690 690646 064625 420527 730632 
306273 475673 507143 707893 936208 086212 343245 398264 360123 601234 244673 164973 301271 716183 316928 852272 386202 594243 351264 101677 016771 353773 709262 926279 906906 906462 646254 205273 464873 306324 
062731 756735 567351 071437 078936 362086 862125 012341 446731 649730 012716 161833 618331 522724 862025 942433 424331 452471 016771 167713 537735 092627 262790 069064 064625 462540 052734 648730 063244 
627317 047567 567351 673518 620862 621257 123417 124467 467314 497301 127161 618331 183316 685227 227245 620259 424331 243313 369397 524716 167713 677133 935377 377355 627906 625402 420527 527348 487306 
273170 475673 673518 714370 893620 212574 264360 234171 244673 673144 973012 271618 833169 272458 243313 433135 693974 247160 160110 677133 713390 353773 773557 735570 262790 279069 205273 273488 873063 
731704 756735 735185 850714 143707 936208 434324 601234 341712 171244 731444 730127 331692 522724 331351 351264 939745 471601 601101 771339 133908 537735 735570 355709 052734 734884 884504 730632 
317047 518507 507143 437078 362086 343245 012341 417124 712446 314441 416497 316928 227245 313512 512643 369397 397452 745247 716011 011016 110167 339088 377355 557092 527348 348845 845046 
170475 185071 071437 370789 123417 171244 124467 144416 164973 272458 126436 452471 160110 110167 101677 377355 570926 540235 124205 273488 450464 
704756 714370 707893 712446 144416 012716 724580 524716 773557 709262 906906 402355 023556 734884 504648 
047567 518507 071437 143707 124467 444164 127161 745247 247160 110167 193537 773557 092627 069064 023556 235561 420527 046487 442487 
475673 185071 437078 125743 574343 982643 244673 441649 164973 271618 512643 643693 452471 471601 101677 677133 935377 353773 735570 355612 205273 464873 873063 424871 
756735 850714 257434 743432 826436 446731 649730 716183 458055 433135 126436 436939 939745 716011 016771 771339 811935 353773 537735 355709 540235 556124 052734 648730 730632 
567351 507143 574343 264360 012341 467314 497301 127161 618331 580553 424331 331351 264369 369397 397452 167713 119353 537735 377355 557092 402355 561242 527348 487306 871251 
673518 076398 643601 123417 673144 973012 271618 183316 692868 272458 805538 243313 313512 643693 693974 974524 677133 133908 193537 773557 023556 273488 873063 712512 
735185 862125 763982 234171 731444 730127 716183 833169 928685 724580 245805 055386 433135 135126 939745 745247 339088 935377 537735 735570 235561 734884 730632 487125 
351850 621257 432450 450580 341712 301271 161833 331692 286852 458055 553862 331351 351264 397452 390881 353773 377355 355709 355612 348845 488450 871251 
518507 143707 212574 324505 505807 416497 618331 868522 580553 538620 313512 512643 110167 193537 773557 420527 884504 712512 
185071 437078 125743 245058 058076 234171 164973 301271 127161 183316 685227 135126 452471 716011 101677 016771 935377 735570 235561 205273 845046 424871 
850714 370789 257434 450580 580763 341712 467314 012716 852272 522724 259424 351264 524716 160110 167713 353773 355709 355612 556124 052734 884504 450464 248712 
507143 707893 125743 574343 505807 580763 807639 982643 360123 417124 673144 127161 716183 227245 580553 594243 512643 247160 601101 167713 677133 881193 537735 557092 556124 561242 205273 527348 504648 487125 
071437 078936 621257 257434 743432 076398 826436 601234 123417 171244 124467 731444 416497 271618 161833 272458 942433 126436 471601 011016 101677 677133 771339 811935 193537 773557 092627 052734 273488 046487 442487 871251 
714370 789362 212574 574343 434324 264360 012341 234171 712446 244673 314441 164973 716183 618331 724580 424331 264369 716011 016771 771339 713390 119353 935377 735570 790690 612420 734884 464873 424871 712512 
143707 125743 743432 343245 505807 643601 123417 341712 124467 446731 144416 649730 183316 245805 243313 643693 745247 110167 101677 167713 133908 193537 353773 773557 355709 124205 046487 648730 442487 248712 
437078 936208 434324 432450 245058 058076 436012 234171 417124 467314 497301 458055 433135 436939 452471 133908 339088 935377 537735 735570 557092 527348 464873 487306 424871 487125 
370789 362086 450580 580763 360123 341712 620259 771339 339088 390881 353773 377355 355709 570926 279069 273488 
707893 505807 807639 716183 161833 202594 643693 167713 677133 713390 908811 881193 557092 709262 790690 205273 734884 464873 
078936 058076 076398 826436 012716 618331 055386 025942 126436 436939 011016 677133 771339 088119 811935 570926 627906 906906 023556 052734 648730 
789362 086212 743432 580763 763982 264360 183316 286852 553862 386202 264369 369397 771339 713390 119353 709262 279069 069064 906462 487306 730632 712512 
893620 862125 807639 643601 833169 868522 538620 862025 643693 693974 713390 193537 092627 790690 690646 064625 612420 873063 
936208 076398 436012 316928 386202 436939 939745 133908 339088 935377 926279 906906 906462 646254 124205 244248 
362086 058076 763982 360123 712446 012716 169286 055386 862025 369397 011016 339088 390881 262790 069064 462540 242052 845046 442487 
620862 580763 639826 124467 127161 692868 286852 553862 620259 025942 110167 390881 709262 627906 690646 906462 625402 420527 450464 730632 632442 424871 
208621 807639 643601 234171 244673 301271 271618 618331 928685 868522 538620 202594 259424 471601 601101 101677 908811 092627 064625 254023 235561 205273 504648 306324 248712 
086212 076398 436012 341712 973012 012716 183316 286852 685227 852272 386202 025942 313512 716011 011016 016771 088119 709262 926279 906462 646254 355612 561242 046487 063244 248712 712512 
862125 360123 417124 730127 833169 868522 852272 522724 862025 433135 135126 160110 881193 811935 092627 262790 064625 462540 402355 556124 612420 487125 
621257 601234 123417 171244 124467 301271 685227 227245 620259 331351 351264 745247 601101 101677 773557 926279 627906 646254 625402 023556 561242 124205 420527 871251 
212574 012341 234171 417124 712446 244673 012716 852272 522724 272458 202594 259424 313512 512643 693974 974524 452471 016771 735570 262790 462540 235561 612420 242052 205273 052734 884504 712512 
125743 580763 982643 123417 171244 124467 164973 127161 161833 522724 227245 025942 594243 135126 512643 126436 939745 745247 524716 167713 119353 353773 355709 625402 124205 205273 527348 845046 
257434 807639 826436 601234 417124 467314 731444 227245 272458 202594 259424 942433 351264 126436 397452 452471 247160 677133 537735 557092 254023 556124 052734 273488 450464 324424 
574343 580763 076398 982643 264360 012341 171244 244673 673144 314441 164973 580553 594243 424331 243313 512643 264369 974524 524716 677133 771339 119353 377355 570926 254023 561242 527348 504648 464873 873063 244248 
743432 763982 826436 643601 123417 341712 712446 446731 731444 144416 649730 973012 553862 942433 243313 433135 313512 126436 643693 397452 745247 771339 713390 193537 773557 709262 906462 625402 540235 242052 273488 046487 648730 730632 632442 442487 248712 712512 
434324 639826 264360 436012 234171 417124 467314 731444 444164 497301 730127 522724 538620 259424 424331 433135 331351 135126 264369 436939 974524 935377 064625 254023 402355 556124 420527 734884 884504 450464 464873 487306 306324 324424 424871 487125 
343245 398264 643601 341712 171244 673144 314441 441649 301271 227245 245805 386202 594243 243313 433135 313512 351264 643693 939745 745247 353773 377355 646254 540235 561242 124205 348845 845046 063244 244248 
432450 436012 712446 731444 416497 272458 458055 538620 942433 433135 331351 436939 397452 452471 735570 262790 462540 402355 612420 242052 488450 450464 632442 442487 
324505 124467 314441 928685 227245 724580 245805 386202 424331 313512 974524 524716 377355 355709 627906 064625 625402 023556 124205 420527 348845 884504 324424 424871 
245058 244673 271618 286852 272458 245805 458055 805538 243313 745247 247160 339088 279069 646254 254023 235561 242052 205273 273488 845046 244248 248712 
450580 724580 458055 580553 055386 452471 160110 390881 735570 790690 462540 420527 488450 450464 442487 
505807 685227 245805 805538 553862 745247 601101 101677 908811 935377 355709 906906 625402 205273 504648 
058076 012716 852272 458055 055386 452471 011016 016771 088119 353773 557092 069064 254023 023556 052734 845046 
580763 982643 360123 522724 580553 553862 594243 512643 524716 110167 167713 881193 353773 537735 570926 540235 450464 873063 
807639 826436 601234 441649 833169 805538 436939 101677 677133 771339 811935 537735 504648 730632 
076398 012341 416497 271618 316928 272458 055386 369397 016771 771339 713390 377355 527348 273488 046487 306324 
763982 164973 973012 716183 169286 868522 724580 553862 025942 313512 693974 713390 133908 773557 709262 561242 273488 734884 730632 063244 712512 
639826 649730 730127 169286 692868 685227 538620 259424 135126 939745 339088 570926 627906 690646 612420 734884 632442 
398264 601234 171244 444164 301271 692868 386202 594243 351264 693974 397452 390881 709262 069064 646254 348845 450464 306324 063244 324424 
982643 012341 712446 244673 441649 928685 580553 594243 942433 512643 643693 939745 881193 092627 690646 462540 504648 632442 
826436 123417 712446 124467 446731 144416 416497 805538 942433 424331 126436 436939 524716 811935 926279 627906 906906 906462 625402 023556 845046 046487 324424 
264360 234171 124467 244673 467314 444164 164973 724580 424331 243313 264369 369397 247160 160110 713390 262790 279069 069064 064625 462540 254023 235561 464873 244248 
643601 244673 446731 673144 441649 649730 497301 618331 245805 243313 643693 693974 471601 601101 133908 627906 690646 646254 625402 648730 
436012 341712 446731 467314 416497 973012 331692 286852 458055 386202 433135 313512 436939 716011 011016 339088 557092 906462 355612 242052 730632 632442 248712 712512 
360123 417124 164973 730127 716183 161833 316928 868522 580553 862025 135126 369397 160110 110167 167713 677133 390881 881193 353773 570926 064625 254023 556124 420527 464873 306324 324424 487125 
601234 171244 673144 731444 649730 301271 161833 618331 685227 805538 620259 202594 351264 693974 601101 101677 677133 771339 811935 709262 646254 540235 561242 205273 052734 648730 306324 063244 871251 
012341 712446 314441 497301 012716 618331 055386 025942 424331 331351 512643 452471 716011 011016 016771 713390 119353 092627 462540 402355 612420 052734 527348 063244 632442 712512 
123417 124467 144416 416497 973012 127161 183316 243313 313512 126436 524716 160110 110167 101677 167713 133908 193537 773557 625402 023556 124205 420527 273488 046487 324424 442487 
234171 244673 314441 444164 164973 730127 301271 127161 833169 424331 433135 331351 135126 264369 452471 247160 601101 016771 935377 735570 254023 235561 205273 734884 464873 244248 424871 
341712 446731 144416 441649 649730 973012 301271 012716 271618 331692 386202 243313 331351 313512 351264 397452 524716 011016 167713 353773 355709 355612 561242 242052 348845 648730 248712 712512 
417124 467314 673144 444164 416497 497301 730127 127161 716183 316928 522724 259424 433135 135126 974524 247160 110167 677133 556124 612420 420527 450464 487306 306324 324424 487125 
171244 673144 731444 441649 301271 271618 161833 169286 227245 594243 351264 974524 745247 471601 101677 771339 646254 561242 124205 063244 244248 871251 
712446 731444 314441 144416 416497 012716 716183 272458 942433 512643 126436 745247 452471 716011 011016 713390 690646 462540 612420 845046 632442 442487 712512 
124467 314441 144416 444164 416497 164973 127161 724580 424331 126436 264369 524716 110167 101677 193537 906462 625402 124205 420527 450464 046487 324424 442487 424871 
244673 144416 444164 441649 164973 271618 245805 594243 942433 243313 512643 264369 643693 247160 101677 353773 064625 254023 242052 205273 504648 464873 244248 424871 248712 
446731 444164 441649 416497 649730 497301 618331 942433 424331 433135 126436 436939 452471 471601 716011 016771 537735 646254 540235 052734 046487 648730 442487 424871 248712 
467314 497301 183316 424331 243313 264369 369397 160110 167713 377355 069064 462540 402355 527348 450464 464873 487306 306324 063244 487125 
673144 973012 833169 433135 643693 693974 974524 601101 677133 773557 690646 646254 556124 273488 873063 063244 632442 
731444 730127 331692 259424 331351 351264 939745 745247 771339 735570 561242 734884 450464 730632 063244 632442 324424 
314441 301271 618331 316928 594243 424331 331351 313512 512643 397452 452471 716011 016771 390881 612420 348845 504648 632442 324424 244248 424871 
144416 012716 183316 169286 942433 243313 135126 126436 524716 160110 011016 167713 124205 845046 046487 324424 244248 442487 248712 
444164 127161 833169 424331 433135 351264 264369 974524 247160 110167 069064 646254 556124 734884 884504 450464 464873 324424 244248 442487 424871 487125 
441649 271618 331692 512643 643693 436939 745247 471601 101677 771339 690646 462540 561242 348845 845046 504648 244248 442487 
416497 716183 316928 126436 436939 369397 452471 716011 110167 016771 713390 906462 612420 420527 488450 450464 046487 442487 
164973 161833 169286 594243 264369 693974 160110 101677 167713 133908 119353 353773 064625 254023 124205 205273 464873 424871 
649730 618331 942433 643693 939745 247160 677133 537735 262790 646254 540235 612420 052734 648730 248712 
497301 618331 424331 331351 397452 452471 471601 601101 390881 377355 627906 402355 527348 487306 424871 487125 
973012 183316 553862 243313 313512 974524 716011 011016 908811 773557 557092 279069 906462 355612 242052 273488 873063 248712 712512 
730127 833169 685227 538620 433135 135126 745247 160110 110167 935377 773557 735570 570926 092627 790690 556124 420527 734884 730632 487125 
301271 331692 852272 386202 331351 351264 452471 471601 601101 101677 016771 390881 908811 353773 709262 926279 561242 205273 306324 424871 871251 
012716 183316 522724 055386 313512 512643 524716 716011 011016 016771 167713 088119 092627 262790 023556 612420 052734 248712 712512 
127161 833169 227245 424331 135126 126436 247160 160110 601101 110167 167713 677133 627906 235561 124205 527348 424871 487125 
271618 331692 272458 243313 471601 011016 101677 771339 279069 355612 273488 504648 244248 248712 871251 
716183 316928 724580 512643 716011 110167 016771 677133 713390 881193 119353 556124 734884 046487 712512 
161833 169286 942433 126436 160110 101677 167713 677133 771339 881193 811935 119353 193537 561242 464873 
618331 424331 331351 716011 601101 016771 677133 771339 713390 908811 811935 119353 612420 648730 
183316 055386 243313 313512 135126 126436 524716 160110 011016 167713 713390 133908 088119 119353 193537 023556 487306 
833169 553862 433135 135126 264369 436939 247160 110167 133908 088119 881193 279069 235561 873063 
331692 538620 386202 331351 313512 351264 643693 369397 397452 471601 101677 339088 881193 557092 790690 355612 561242 730632 632442 
316928 386202 313512 436939 716011 016771 133908 339088 811935 570926 906906 556124 612420 306324 324424 
169286 055386 135126 126436 369397 160110 167713 339088 119353 709262 069064 561242 124205 063244 
692868 272458 553862 693974 390881 092627 690646 612420 632442 
928685 227245 724580 458055 538620 939745 908811 926279 064625 124205 348845 
286852 272458 245805 580553 553862 386202 397452 906462 646254 242052 488450 248712 
868522 805538 538620 862025 313512 974524 064625 462540 561242 420527 884504 248712 712512 
685227 386202 620259 135126 745247 935377 092627 646254 625402 612420 420527 205273 487125 
852272 553862 386202 862025 351264 452471 353773 557092 709262 926279 355612 561242 242052 205273 052734 632442 871251 712512 
522724 538620 862025 202594 259424 512643 974524 524716 537735 570926 092627 262790 556124 612420 420527 052734 527348 306324 324424 
227245 620259 025942 594243 939745 745247 247160 537735 377355 926279 627906 540235 561242 124205 205273 527348 348845 063244 244248 487125 
272458 202594 259424 942433 397452 452471 377355 773557 262790 279069 402355 612420 242052 273488 488450 632442 244248 442487 871251 
724580 424331 974524 524716 713390 773557 735570 790690 462540 023556 124205 420527 734884 884504 324424 424871 712512 
245805 243313 745247 247160 355709 625402 540235 235561 124205 242052 205273 348845 845046 244248 248712 
458055 862025 433135 452471 377355 557092 254023 402355 242052 348845 488450 450464 487125 
580553 620259 594243 512643 881193 119353 773557 570926 540235 023556 420527 488450 884504 
805538 202594 811935 193537 735570 235561 205273 884504 845046 504648 
055386 025942 135126 011016 935377 355709 023556 355612 052734 845046 046487 487306 
553862 313512 351264 353773 557092 709262 906462 355612 556124 561242 450464 873063 
538620 135126 512643 537735 735570 570926 092627 790690 064625 556124 612420 488450 504648 648730 730632 
386202 313512 351264 397452 355709 709262 926279 906906 906462 646254 625402 355612 561242 124205 884504 487306 306324 
862025 811935 092627 262790 069064 064625 462540 254023 402355 612420 242052 845046 873063 487125 
620259 926279 627906 690646 646254 625402 540235 023556 124205 420527 871251 
202594 974524 262790 462540 402355 235561 242052 205273 052734 884504 306324 712512 
025942 745247 627906 625402 023556 355612 561242 527348 845046 063244 632442 
259424 351264 974524 452471 279069 069064 254023 556124 612420 052734 273488 450464 306324 324424 
594243 512643 745247 524716 690646 254023 540235 561242 124205 205273 527348 504648 464873 063244 244248 
942433 512643 126436 643693 452471 677133 906462 540235 612420 242052 052734 046487 648730 632442 442487 
424331 126436 264369 436939 452471 524716 471601 771339 402355 124205 420527 527348 464873 487306 324424 424871 
243313 264369 643693 247160 167713 713390 119353 353773 254023 242052 205273 273488 873063 244248 248712 
433135 436939 939745 677133 133908 811935 193537 537735 540235 402355 730632 487125 
331351 369397 397452 471601 601101 771339 339088 390881 119353 935377 377355 402355 235561 306324 871251 
313512 397452 716011 011016 713390 193537 353773 773557 023556 355612 248712 712512 
135126 160110 110167 133908 935377 735570 570926 235561 556124 845046 487125 
351264 353773 355709 709262 069064 646254 355612 556124 561242 052734 450464 306324 063244 324424 871251 
512643 119353 092627 690646 462540 561242 612420 527348 504648 632442 712512 
126436 524716 193537 926279 627906 906906 906462 625402 023556 124205 046487 324424 
264369 247160 771339 262790 279069 069064 064625 254023 235561 464873 244248 
643693 677133 713390 881193 353773 790690 690646 646254 648730 873063 
436939 771339 133908 811935 537735 926279 906906 730632 
369397 713390 339088 119353 935377 377355 262790 069064 306324 
693974 133908 193537 353773 627906 690646 646254 063244 
939745 339088 935377 537735 348845 632442 
397452 390881 377355 557092 906462 625402 355612 242052 488450 632442 324424 
974524 773557 570926 064625 254023 556124 420527 734884 884504 306324 324424 
745247 935377 773557 735570 709262 646254 540235 561242 205273 348845 845046 046487 063244 244248 442487 
452471 016771 353773 462540 402355 612420 052734 488450 450464 464873 632442 442487 424871 
524716 011016 167713 537735 570926 627906 023556 124205 527348 504648 324424 424871 248712 
247160 110167 677133 262790 279069 235561 242052 648730 244248 248712 487125 
471601 101677 771339 487306 424871 871251 
716011 016771 713390 908811 712512 
160110 167713 088119 262790 790690 462540 
601101 677133 908811 881193 627906 906906 625402 871251 
011016 088119 811935 069064 023556 845046 712512 
110167 119353 193537 420527 450464 
101677 193537 935377 092627 205273 504648 
016771 353773 926279 052734 046487 424871 
167713 119353 353773 537735 262790 464873 248712 
677133 881193 537735 377355 627906 648730 873063 487125 
771339 811935 377355 773557 279069 730632 871251 
713390 119353 773557 735570 262790 790690 612420 712512 
133908 193537 627906 906906 124205 273488 
339088 279069 069064 273488 734884 
390881 790690 690646 734884 348845 424871 
908811 906906 906462 348845 424871 248712 
088119 488450 248712 487125 
881193 884504 873063 487125 871251 
811935 540235 871251 
119353 402355 
193537 092627 023556 420527 
935377 926279 235561 205273 
353773 254023 355612 205273 052734 464873 873063 
537735 540235 052734 527348 648730 730632 487125 
377355 402355 527348 348845 487306 306324 487125 871251 
773557 023556 420527 273488 873063 871251 712512 
735570 790690 462540 235561 205273 734884 730632 712512 
355709 625402 355612 052734 
557092 254023 355612 556124 561242 242052 527348 
570926 906906 690646 540235 556124 420527 
709262 069064 906462 561242 205273 730632 712512 
092627 690646 064625 612420 420527 052734 046487 442487 
926279 906462 646254 124205 205273 424871 
262790 462540 612420 242052 052734 648730 248712 
627906 625402 023556 124205 527348 487306 
279069 254023 235561 242052 273488 873063 
790690 730632 
906906 487306 306324 
069064 052734 450464 873063 063244 
690646 845046 504648 730632 632442 
906462 450464 046487 306324 632442 
064625 124205 504648 464873 063244 324424 487125 
646254 556124 242052 046487 648730 306324 063244 244248 871251 
462540 561242 612420 420527 488450 464873 063244 632442 442487 712512 
625402 355612 612420 124205 632442 324424 
254023 556124 242052 205273 464873 873063 324424 244248 
540235 561242 124205 348845 648730 730632 244248 
402355 242052 488450 487306 306324 442487 487125 
023556 420527 063244 
235561 205273 
355612 730632 248712 712512 
556124 052734 450464 306324 324424 487125 
561242 527348 504648 063244 632442 244248 871251 
612420 488450 648730 632442 324424 442487 712512 
124205 884504 324424 244248 424871 
242052 845046 632442 244248 442487 248712 712512 
420527 450464 324424 442487 424871 487125 
205273 464873 244248 
052734 450464 648730 063244 
527348 504648 487306 244248 
273488 046487 873063 244248 442487 
734884 464873 730632 324424 424871 
348845 648730 244248 248712 
488450 648730 487306 442487 487125 
884504 487306 324424 
845046 873063 244248 
450464 324424 442487 
504648 244248 
046487 442487 
464873 424871 
648730 248712 
487306 487125 
873063 871251 
730632 712512 
632442 712512 
<------------Next-300-Signals------------>
256492 252502 250218 218172 046441 236980 872292 292272 227293 937892 955899 558991 919490 319499 143452 550437 201890 222122 212291 272292 292593 259335 237481 751194 953372 256156 156788 852439 287792 216974 205893 486432 576182 
564923 525021 374533 464414 644143 851623 369803 722922 378927 558991 589919 194907 194994 949943 962143 434520 555043 504374 722925 925933 358023 511946 915953 533722 561567 567885 524390 243903 877923 444793 447933 804373 864326 761826 263833 
649232 745333 644143 441433 516236 698031 044862 448622 872292 229227 292272 789270 949077 949943 499435 621434 143452 345203 043742 189022 890222 022212 108272 272292 229259 259335 580237 193532 159533 678852 439033 390332 779231 447933 479331 043731 486432 643265 618263 638330 
492325 453334 414338 143385 162369 448622 486229 722922 292272 922729 892701 490770 499435 994359 214345 434520 452037 437420 890222 902221 222122 082722 722925 292593 259335 593358 802374 481935 935327 091595 595337 337225 390332 903328 792312 479331 793316 097165 437312 864326 432657 
923252 433851 623698 872292 722922 229227 292272 922729 227293 937892 927010 994359 943596 143452 043742 890222 902221 022212 222122 221229 108272 827229 272292 229259 925933 593358 933580 023748 193532 353275 915953 953372 533722 372256 678852 903328 033287 923121 933169 971658 643265 
232525 273745 338516 236980 722922 229227 292272 922729 272937 214345 434520 037705 770555 437420 902221 222122 221229 212291 229185 082722 272292 722925 292593 259335 933580 237481 935327 532751 091595 533722 337225 722561 225615 788524 332877 231216 731205 432657 
325250 385162 622980 229800 229227 227293 789270 927010 345203 377055 705550 374201 022212 221229 827229 229259 925933 335802 353275 327511 915953 337225 372256 225615 885243 524390 328779 691150 373120 312058 326576 383300 
252502 229800 298008 872292 722922 292272 272937 892701 270107 452037 055504 018902 022212 222122 212291 082722 272292 292593 259335 335802 193532 159533 953372 722561 256156 852439 243903 287792 792312 911509 
525021 698031 722922 229227 922729 927010 558991 359621 520377 555043 189022 902221 222122 221229 511781 827229 722925 925933 358023 935327 532751 327511 698001 162091 595337 533722 722561 225615 524390 923121 115097 265761 330031 
250218 980318 470448 862298 298008 229227 292272 227293 270107 596214 550437 742018 890222 022212 221229 212291 122918 851178 272292 229259 259335 580237 353275 275119 980016 620915 225615 256156 156788 231216 150971 657618 300314 
502181 803184 704486 622980 892701 558991 907701 770161 407731 962143 504374 420189 902221 222122 212291 229185 511781 802374 237481 532751 800162 162091 209159 722561 567885 923121 312169 509716 576182 003147 
021817 031843 044862 229800 229227 927010 077016 701613 077319 621434 520377 201890 022212 221229 122918 291851 185117 117810 810827 023748 374819 327511 001620 620915 091595 225615 561567 033287 332877 231216 121697 058937 761826 003147 031470 
218172 385162 318434 448622 298008 800872 008722 292272 270107 016134 214345 203770 018902 222122 212291 229185 918511 851178 178108 108272 272292 748193 275119 800162 209159 953372 256156 615678 678852 328779 287792 312169 216974 576182 618263 
181727 851623 184347 486229 980087 008722 087229 229227 922729 378927 194907 161340 134077 189022 221229 185117 511781 781082 810827 082722 580237 481935 935327 001620 533722 561567 156788 788524 287792 121697 169744 115097 580437 761826 182638 
817273 851623 516236 843470 862298 800872 087229 872292 292272 227293 789270 340773 345203 890222 212291 851178 117810 810827 108272 827229 802374 819353 353275 016209 915953 337225 615678 885243 877923 216974 447933 804373 618263 826383 833003 
172737 162369 184347 872292 922729 272937 378927 892701 270107 194907 134077 407731 452037 550437 122918 185117 178108 082722 272292 580237 193532 532751 162091 159533 595337 372256 156788 852439 332877 779231 121697 169744 974447 479331 115097 580437 043731 058937 432657 182638 
727374 347044 722922 227293 729378 789270 927010 701070 077319 773194 621434 520377 504374 827229 722925 802374 327511 751194 953372 722561 788524 524390 328779 792312 216974 697444 744479 793316 804373 437312 589370 704864 326576 826383 300314 
273745 143385 470448 272937 293789 270107 070955 773194 214345 203770 037705 377055 770555 043742 229185 272292 259335 023748 353275 275119 533722 225615 243903 287792 169744 974447 043731 373120 893704 643265 265761 263833 003147 314705 
737453 441433 433851 031843 704486 227293 937892 709558 701613 731949 143452 037705 377055 770555 705550 437420 237481 748193 819353 532751 915953 337225 439033 877923 697444 744479 447933 437312 731205 937048 432657 833003 031470 
374533 644143 441433 414338 338516 369803 318434 272937 378927 340773 434520 345203 377055 770555 374201 292593 925933 358023 374819 193532 327511 159533 372256 439033 390332 877923 779231 974447 444793 447933 479331 804373 373120 370486 326576 263833 330031 314705 
745333 644143 441433 414338 143385 729378 701613 340773 949943 345203 705550 555043 742018 925933 259335 748193 819353 935327 915953 159533 595337 885243 243903 439033 390332 779231 792312 744479 444793 447933 479331 793316 804373 043731 205893 048643 826383 263833 638330 
453334 464414 441433 414338 143385 433851 803184 318434 434704 016134 407731 773194 499435 621434 452037 055504 550437 504374 259335 593358 802374 481935 193532 353275 751194 159533 595337 953372 852439 439033 390332 903328 447933 479331 793316 043731 437312 058937 893704 486432 263833 638330 383300 300314 
533340 143385 433851 236980 031843 184347 843470 161340 731949 214345 434520 520377 203770 555043 504374 043742 437420 593358 933580 023748 935327 532751 511946 595337 953372 533722 524390 903328 033287 793316 933169 437312 373120 589370 937048 638330 383300 833003 003147 031470 
333404 433851 338516 369803 803184 318434 843470 434704 347044 613407 773194 319499 621434 143452 345203 037705 055504 437420 374201 933580 335802 237481 353275 533722 337225 243903 033287 332877 697444 933169 331691 165804 373120 731205 893704 370486 383300 833003 330031 300314 031470 314705 
334046 338516 031843 184347 434704 347044 704486 077016 134077 731949 214345 434520 377055 555043 374201 335802 358023 374819 511946 980016 337225 372256 439033 332877 231216 974447 331691 658043 312058 937048 370486 864326 326576 833003 330031 314705 
340464 385162 318434 843470 347044 470448 044862 770161 340773 319499 621434 143452 345203 550437 119469 800162 390332 312169 697444 744479 580437 370486 704864 643265 330031 300314 
404644 803184 184347 434704 347044 470448 704486 448622 701613 407731 194994 214345 434520 504374 802374 194698 001620 169744 697444 974447 444793 804373 704864 048643 432657 300314 003147 
046441 031843 843470 347044 470448 044862 016134 949943 143452 043742 023748 237481 946980 016209 697444 974447 744479 316911 043731 048643 486432 003147 031470 
464414 318434 434704 470448 704486 194994 499435 596214 621434 434520 504374 437420 374819 469800 169744 697444 974447 744479 444793 169115 165804 437312 704864 486432 864326 300314 
644143 031843 184347 347044 044862 340773 949943 962143 214345 345203 555043 043742 748193 885243 243903 697444 974447 744479 444793 447933 691150 658043 804373 048643 643265 618263 003147 
441433 851623 031843 318434 843470 470448 448622 701613 340773 407731 949943 499435 621434 143452 345203 452037 550437 437420 925933 748193 481935 159533 852439 243903 439033 744479 444793 447933 479331 580437 043731 048643 486432 263833 031470 
414338 516236 980318 318434 184347 434704 470448 729378 016134 407731 499435 994359 214345 434520 452037 504374 259335 593358 481935 819353 194698 595337 615678 524390 439033 390332 903328 444793 447933 479331 804373 437312 312058 486432 864326 182638 638330 314705 
143385 162369 803184 184347 843470 293789 107095 161340 943596 214345 143452 043742 229185 259335 593358 933580 193532 353275 946980 953372 156788 567885 243903 903328 033287 793316 169115 043731 120589 643265 826383 383300 
433851 031843 434704 937892 407731 435962 143452 434520 437420 291851 593358 933580 335802 237481 532751 469800 533722 678852 439033 033287 332877 923121 479331 933169 331691 043731 437312 432657 263833 833003 330031 
338516 318434 378927 077016 943596 434520 918511 933580 335802 358023 374819 327511 980016 337225 372256 788524 332877 328779 231216 793316 331691 316911 509716 437312 370486 326576 638330 330031 300314 
385162 044862 770161 435962 345203 189022 222122 185117 781082 082722 335802 275119 800162 885243 390332 287792 312169 933169 097165 373120 486432 265761 576182 383300 
851623 031843 448622 701613 359621 555043 890222 221229 851178 810827 827229 358023 819353 751194 001620 159533 885243 852439 877923 121697 331691 971658 658043 804373 048643 864326 657618 761826 826383 833003 
516236 318434 486229 016134 596214 550437 212291 511781 580237 511946 016209 595337 372256 256156 779231 231216 216974 316911 509716 716580 580437 486432 326576 576182 618263 
162369 184347 862298 922729 161340 077319 994359 962143 122918 802374 119469 162091 722561 561567 852439 792312 312169 169744 933169 169115 165804 120589 864326 265761 182638 
623698 862298 622980 227293 729378 613407 773194 943596 621434 122918 593358 023748 194698 620915 225615 615678 524390 903328 923121 121697 331691 971658 643265 657618 182638 
236980 622980 229800 272937 293789 731949 435962 434520 203770 437420 201890 229185 933580 237481 946980 256156 156788 243903 033287 231216 216974 316911 716580 576182 826383 638330 031470 
369803 229800 340773 319499 949943 359621 962143 345203 374201 335802 358023 374819 819353 469800 159533 567885 243903 439033 332877 169744 169115 165804 205893 761826 263833 383300 833003 314705 
698031 298008 892701 558991 407731 499435 621434 452037 291851 918511 358023 193532 698001 162091 595337 678852 439033 390332 779231 697444 479331 691150 658043 043731 058937 618263 638330 330031 
980318 470448 980087 729378 927010 589919 077319 994359 520377 742018 122918 918511 185117 593358 580237 935327 980016 620915 953372 390332 903328 792312 793316 971658 580437 437312 589370 937048 657618 182638 383300 300314 
803184 704486 800872 293789 899194 016134 773194 203770 504374 420189 229185 851178 933580 802374 751194 800162 209159 903328 033287 923121 933169 804373 373120 893704 704864 576182 826383 833003 300314 003147 
031843 044862 937892 991949 701613 161340 731949 949943 962143 037705 555043 043742 201890 291851 335802 023748 511946 001620 091595 885243 439033 033287 332877 231216 331691 658043 731205 205893 937048 048643 761826 263833 833003 003147 031470 
318434 378927 919490 016134 613407 319499 499435 621434 550437 018902 918511 358023 119469 788524 852439 390332 328779 312169 216974 697444 316911 580437 312058 058937 370486 486432 618263 638330 330031 300314 314705 
184347 980087 194907 161340 134077 194994 994359 214345 520377 504374 189022 185117 580237 935327 194698 595337 885243 524390 121697 169744 974447 115097 580437 804373 589370 864326 182638 383300 003147 
843470 800872 789270 701070 919490 949077 490770 613407 340773 943596 143452 203770 043742 437420 851178 933580 802374 353275 946980 953372 852439 243903 744479 804373 043731 373120 589370 893704 643265 383300 833003 031470 
434704 892701 010709 194907 490770 907701 134077 407731 194994 435962 434520 037705 055504 504374 437420 374201 335802 532751 469800 533722 439033 169744 444793 165804 437312 731205 893704 704864 432657 833003 314705 
347044 927010 107095 949077 077016 340773 949943 345203 377055 555043 043742 742018 358023 327511 337225 169744 697444 447933 658043 312058 937048 048643 330031 300314 
470448 270107 070955 490770 770161 499435 770555 550437 437420 420189 178108 023748 697444 974447 479331 971658 580437 937048 370486 486432 
704486 701070 709558 701613 705550 504374 781082 237481 974447 744479 793316 509716 716580 804373 370486 704864 864326 761826 
044862 800872 008722 937892 435962 143452 043742 018902 022212 082722 335802 374819 800162 678852 744479 444793 097165 043731 704864 048643 643265 
448622 008722 722922 378927 435962 359621 143452 434520 043742 437420 018902 189022 890222 222122 108272 082722 358023 748193 001620 533722 678852 788524 444793 447933 437312 048643 486432 432657 
486229 087229 229227 922729 789270 589919 596214 434520 437420 420189 189022 890222 902221 221229 082722 827229 229259 580237 481935 016209 337225 788524 885243 486432 
862298 872292 292272 227293 892701 899194 962143 742018 890222 902221 022212 212291 122918 851178 827229 272292 292593 802374 194698 162091 372256 885243 852439 312058 864326 182638 
622980 722922 922729 272937 927010 621434 420189 022212 222122 122918 229185 722925 925933 933580 946980 620915 722561 524390 691150 716580 120589 826383 638330 
229800 229227 227293 729378 789270 927010 270107 919490 203770 201890 222122 221229 229185 291851 117810 229259 259335 335802 469800 209159 225615 524390 243903 165804 205893 589370 263833 383300 
298008 292272 293789 892701 270107 194907 742018 018902 291851 178108 292593 593358 358023 194698 698001 243903 658043 312058 893704 937048 833003 
980087 927010 270107 949077 134077 452037 520377 550437 420189 189022 185117 781082 810827 933580 580237 935327 946980 980016 033287 974447 115097 580437 120589 937048 370486 330031 
800872 292272 937892 701070 490770 340773 520377 203770 504374 201890 890222 851178 810827 108272 335802 802374 800162 953372 678852 390332 332877 150971 804373 205893 704864 300314 
008722 922729 378927 010709 907701 407731 203770 037705 043742 018902 189022 890222 902221 022212 222122 108272 082722 358023 023748 800162 001620 533722 678852 788524 903328 328779 287792 509716 043731 058937 048643 003147 
087229 227293 789270 010709 095589 589919 077016 077319 037705 437420 189022 890222 902221 022212 221229 082722 827229 229259 580237 001620 016209 337225 788524 885243 033287 287792 877923 097165 
872292 272937 937892 892701 899194 773194 374201 890222 902221 022212 222122 212291 108272 082722 827229 272292 292593 802374 800162 162091 372256 678852 885243 852439 287792 877923 779231 792312 576182 
722922 729378 378927 731949 435962 742018 018902 189022 890222 902221 022212 222122 221229 122918 781082 082722 827229 272292 722925 925933 620915 533722 722561 788524 877923 792312 923121 761826 
229227 378927 789270 270107 949077 359621 520377 189022 890222 902221 022212 222122 221229 212291 229185 810827 827229 272292 722925 229259 259335 580237 935327 209159 337225 225615 033287 779231 923121 231216 121697 
292272 789270 892701 490770 596214 203770 890222 902221 022212 222122 221229 212291 291851 108272 082722 272292 229259 292593 802374 193532 353275 953372 372256 390332 332877 287792 792312 231216 216974 
922729 892701 927010 010709 955899 991949 907701 994359 962143 420189 902221 022212 222122 221229 122918 082722 827229 722925 229259 925933 023748 935327 532751 533722 722561 852439 903328 328779 923121 312169 933169 911509 120589 
227293 927010 107095 345203 201890 022212 222122 221229 212291 229185 827229 272292 229259 292593 925933 237481 748193 327511 337225 225615 885243 524390 243903 287792 877923 231216 121697 444793 447933 205893 618263 826383 263833 
272937 270107 070955 194907 452037 550437 222122 212291 122918 272292 722925 292593 925933 259335 580237 481935 275119 595337 372256 852439 243903 332877 877923 779231 216974 974447 447933 479331 580437 058937 432657 182638 263833 
729378 701070 709558 949077 520377 504374 742018 122918 229185 851178 722925 229259 259335 593358 802374 023748 819353 953372 722561 615678 524390 903328 328779 779231 792312 744479 479331 793316 804373 589370 326576 826383 
293789 010709 095589 991949 490770 994359 203770 043742 420189 221229 229185 291851 511781 229259 292593 593358 933580 023748 237481 193532 275119 209159 533722 156788 243903 033287 328779 287792 793316 933169 043731 120589 893704 265761 263833 
937892 107095 955899 919490 907701 943596 435962 037705 437420 201890 117810 272292 933580 335802 237481 935327 953372 533722 337225 567885 678852 332877 287792 933169 331691 437312 205893 937048 
378927 070955 558991 194907 359621 377055 374201 018902 178108 810827 722925 358023 374819 935327 337225 372256 678852 788524 332877 328779 877923 974447 316911 373120 058937 370486 
789270 709558 589919 919490 949077 490770 203770 705550 189022 781082 108272 229259 580237 353275 469800 788524 885243 779231 744479 716580 731205 589370 383300 031470 
892701 899194 194907 490770 907701 407731 037705 374201 890222 902221 212291 291851 511781 082722 292593 802374 532751 698001 162091 722561 852439 792312 043731 893704 265761 833003 314705 
927010 919490 949077 907701 077016 077319 377055 437420 742018 022212 122918 918511 117810 827229 925933 933580 327511 946980 980016 620915 225615 524390 923121 437312 937048 657618 
270107 194907 770161 613407 773194 520377 770555 550437 374201 420189 222122 229185 185117 178108 810827 272292 580237 275119 800162 209159 256156 243903 974447 580437 373120 370486 576182 003147 
701070 949077 490770 701613 161340 134077 731949 203770 705550 504374 742018 201890 851178 781082 108272 802374 751194 001620 744479 691150 716580 804373 731205 589370 704864 761826 031470 
010709 490770 907701 016134 613407 340773 077319 319499 037705 055504 043742 420189 018902 511781 810827 082722 023748 119469 016209 328779 312169 911509 043731 120589 893704 314705 
107095 907701 077016 134077 407731 194994 037705 377055 201890 189022 117810 108272 194698 162091 091595 337225 567885 287792 121697 169115 115097 097165 205893 937048 
070955 077016 770161 077319 037705 377055 770555 018902 722925 481935 620915 091595 915953 372256 678852 877923 150971 097165 971658 058937 370486 
709558 701613 770555 705550 742018 229259 593358 819353 209159 159533 722561 788524 903328 779231 509716 971658 716580 312058 704864 
095589 077319 994359 705550 055504 420189 292593 933580 193532 275119 016209 091595 595337 033287 911509 097165 716580 120589 
955899 319499 994359 943596 055504 555043 201890 925933 335802 374819 935327 275119 751194 915953 953372 852439 933169 911509 115097 165804 205893 
558991 194994 359621 555043 550437 018902 212291 918511 511781 358023 748193 532751 751194 511946 698001 162091 524390 331691 316911 150971 658043 058937 
589919 077319 731949 319499 949943 596214 189022 122918 185117 229259 580237 374819 481935 275119 511946 119469 980016 620915 209159 316911 169115 509716 580437 589370 
899194 016134 773194 319499 194994 499435 596214 890222 229185 851178 292593 802374 748193 819353 751194 194698 800162 209159 091595 169744 697444 169115 691150 097165 893704 
991949 161340 731949 194994 949943 994359 962143 221229 291851 925933 481935 511946 946980 091595 915953 697444 974447 933169 691150 911509 971658 937048 
919490 613407 319499 949943 499435 943596 437420 201890 212291 918511 117810 933580 819353 119469 946980 469800 915953 524390 974447 911509 115097 716580 589370 031470 
194907 613407 134077 194994 994359 374201 018902 122918 185117 178108 193532 194698 698001 595337 243903 121697 974447 115097 150971 165804 058937 893704 314705 
949077 134077 340773 949943 943596 452037 520377 742018 189022 935327 946980 980016 953372 439033 332877 974447 744479 115097 589370 937048 
490770 340773 407731 499435 434520 520377 203770 437420 420189 890222 469800 390332 328779 444793 691150 150971 589370 893704 031470 
907701 407731 203770 037705 374201 902221 918511 511781 237481 532751 327511 698001 903328 287792 923121 911509 509716 043731 893704 937048 265761 314705 
077016 077319 037705 377055 742018 022212 117810 374819 327511 275119 980016 372256 877923 231216 793316 509716 097165 437312 937048 370486 657618 
770161 773194 770555 374201 420189 178108 748193 275119 751194 800162 722561 779231 923121 312169 479331 933169 150971 097165 373120 370486 704864 265761 576182 330031 
701613 731949 705550 742018 201890 781082 748193 751194 001620 225615 792312 231216 121697 793316 331691 509716 971658 804373 731205 205893 704864 048643 657618 761826 300314 
016134 773194 596214 621434 055504 018902 751194 016209 256156 312169 216974 316911 097165 716580 043731 058937 486432 576182 003147 
161340 731949 962143 214345 201890 117810 511946 469800 001620 162091 561567 524390 121697 169744 169115 691150 165804 589370 864326 761826 638330 383300 031470 
613407 319499 621434 143452 550437 018902 810827 119469 698001 016209 615678 243903 033287 697444 974447 911509 115097 580437 893704 643265 618263 383300 833003 003147 314705 
134077 194994 434520 452037 520377 504374 189022 185117 108272 935327 194698 162091 439033 033287 332877 121697 974447 744479 115097 150971 804373 937048 432657 833003 330031 031470 
340773 949943 345203 520377 203770 043742 358023 748193 353275 243903 390332 332877 328779 744479 444793 447933 150971 804373 043731 370486 048643 326576 330031 300314 314705 
407731 499435 452037 203770 037705 437420 902221 511781 237481 481935 532751 327511 439033 287792 779231 444793 447933 479331 509716 043731 437312 486432 265761 330031 
077319 994359 037705 377055 022212 117810 827229 374819 327511 275119 016209 877923 792312 479331 793316 097165 437312 657618 300314 
773194 943596 770555 178108 272292 748193 275119 751194 788524 779231 923121 793316 933169 373120 893704 704864 576182 003147 
731949 435962 221229 781082 722925 481935 751194 511946 231216 744479 933169 331691 911509 731205 937048 761826 031470 
319499 359621 212291 229259 374819 819353 119469 016209 209159 852439 328779 312169 744479 331691 316911 911509 115097 312058 370486 314705 
194994 596214 504374 122918 292593 193532 751194 194698 162091 091595 524390 121697 216974 169744 697444 444793 115097 150971 165804 893704 704864 
949943 962143 345203 555043 043742 925933 748193 819353 511946 946980 915953 159533 885243 243903 439033 877923 169744 974447 444793 447933 658043 937048 048643 
499435 621434 452037 550437 437420 229185 259335 481935 193532 119469 469800 091595 159533 595337 852439 439033 390332 779231 697444 447933 479331 169115 097165 580437 486432 
994359 214345 504374 291851 229259 593358 374819 819353 935327 194698 209159 915953 595337 953372 524390 390332 903328 792312 974447 744479 793316 933169 691150 911509 971658 804373 864326 
943596 143452 043742 918511 292593 933580 748193 193532 946980 980016 091595 953372 243903 903328 923121 444793 793316 933169 911509 043731 643265 326576 
435962 434520 437420 018902 925933 335802 481935 935327 800162 915953 533722 439033 447933 933169 437312 486432 432657 265761 
359621 374201 189022 902221 259335 358023 353275 327511 001620 159533 337225 779231 923121 479331 331691 316911 150971 373120 657618 330031 
596214 504374 890222 022212 593358 580237 016209 595337 792312 231216 216974 697444 793316 316911 509716 893704 576182 300314 
962143 555043 902221 222122 292593 925933 748193 162091 915953 885243 923121 312169 169744 974447 933169 169115 658043 937048 048643 263833 003147 
621434 550437 221229 925933 481935 751194 620915 852439 121697 697444 691150 580437 486432 638330 031470 
214345 504374 212291 229185 259335 819353 511946 225615 524390 216974 974447 804373 864326 314705 
143452 043742 189022 108272 593358 193532 119469 953372 533722 678852 243903 744479 043731 486432 643265 
434520 705550 437420 933580 935327 469800 001620 533722 337225 788524 524390 439033 444793 716580 437312 373120 864326 432657 638330 031470 
345203 055504 555043 374201 925933 335802 358023 748193 353275 016209 915953 337225 372256 885243 243903 444793 447933 165804 731205 205893 048643 643265 618263 383300 833003 314705 
452037 555043 550437 742018 259335 358023 580237 481935 162091 159533 595337 852439 439033 332877 447933 479331 115097 658043 580437 312058 058937 486432 432657 182638 330031 
520377 550437 504374 420189 810827 593358 580237 802374 935327 620915 595337 953372 561567 524390 390332 332877 328779 121697 150971 580437 804373 120589 589370 326576 826383 300314 
203770 504374 043742 201890 108272 933580 802374 023748 353275 001620 209159 953372 533722 243903 903328 328779 287792 216974 509716 804373 043731 373120 205893 589370 893704 265761 263833 383300 003147 031470 
037705 043742 437420 018902 082722 335802 023748 237481 532751 016209 091595 533722 337225 567885 033287 287792 097165 043731 437312 731205 893704 937048 833003 031470 314705 
377055 374201 358023 374819 353275 327511 337225 372256 567885 678852 877923 097165 971658 373120 312058 937048 370486 330031 314705 
770555 722925 620915 091595 372256 722561 678852 788524 779231 971658 716580 731205 120589 370486 
705550 201890 933580 001620 209159 915953 722561 788524 691150 716580 205893 704864 
055504 018902 335802 751194 016209 091595 159533 788524 911509 165804 058937 893704 
555043 925933 358023 511946 915953 159533 595337 885243 439033 115097 658043 205893 937048 048643 833003 
550437 810827 259335 580237 159533 595337 561567 852439 390332 974447 150971 580437 058937 370486 486432 330031 
504374 108272 593358 802374 595337 953372 524390 903328 216974 744479 509716 804373 589370 704864 864326 300314 
043742 018902 022212 082722 023748 193532 953372 533722 243903 033287 287792 169744 444793 043731 893704 048643 643265 003147 
437420 117810 827229 933580 237481 935327 469800 001620 533722 337225 439033 877923 697444 447933 437312 373120 937048 486432 432657 638330 031470 
374201 902221 212291 178108 272292 335802 374819 353275 327511 698001 016209 337225 372256 779231 974447 479331 331691 316911 373120 731205 370486 383300 330031 314705 
742018 022212 122918 781082 722925 748193 980016 162091 722561 792312 744479 793316 312058 937048 657618 182638 
420189 222122 221229 229185 827229 229259 275119 800162 620915 209159 328779 923121 312169 933169 120589 370486 576182 826383 
201890 221229 212291 291851 117810 272292 292593 751194 469800 001620 209159 091595 524390 287792 231216 121697 331691 691150 205893 704864 761826 263833 031470 
018902 918511 178108 108272 082722 335802 511946 698001 016209 915953 678852 243903 216974 316911 911509 058937 048643 618263 314705 
189022 185117 781082 108272 082722 358023 193532 119469 980016 162091 159533 533722 788524 439033 287792 169744 169115 115097 589370 486432 182638 
890222 810827 108272 082722 827229 272292 580237 193532 800162 533722 337225 885243 390332 877923 792312 893704 864326 
902221 918511 108272 082722 827229 272292 722925 802374 935327 532751 001620 162091 337225 372256 722561 903328 779231 923121 
022212 108272 082722 827229 272292 722925 229259 023748 327511 016209 620915 372256 722561 225615 033287 792312 231216 437312 
222122 082722 827229 272292 722925 229259 292593 275119 800162 209159 533722 722561 225615 256156 287792 792312 923121 312169 373120 576182 
221229 827229 272292 722925 229259 275119 001620 016209 209159 337225 225615 328779 923121 231216 121697 911509 731205 120589 761826 
212291 511781 272292 229259 292593 237481 532751 016209 162091 372256 722561 287792 779231 231216 312169 216974 331691 316911 115097 312058 205893 265761 618263 
122918 117810 178108 722925 925933 023748 327511 194698 162091 620915 722561 225615 156788 792312 121697 316911 169115 150971 312058 120589 657618 182638 
229185 722925 229259 259335 237481 275119 620915 209159 225615 256156 567885 923121 169115 097165 120589 576182 826383 
291851 229259 292593 593358 237481 532751 698001 209159 091595 256156 678852 231216 331691 691150 971658 205893 265761 761826 263833 
918511 933580 327511 698001 980016 915953 722561 788524 923121 316911 911509 716580 618263 
185117 580237 935327 275119 980016 595337 225615 885243 121697 169115 115097 165804 580437 182638 003147 
851178 802374 353275 751194 800162 953372 256156 615678 156788 852439 691150 150971 971658 804373 657618 031470 
511781 237481 532751 511946 533722 561567 156788 567885 331691 316911 911509 509716 716580 043731 265761 576182 314705 
117810 374819 327511 119469 469800 567885 316911 169115 115097 716580 165804 437312 657618 
178108 748193 275119 194698 698001 156788 678852 169115 971658 165804 373120 576182 182638 
781082 481935 751194 980016 788524 287792 792312 716580 731205 486432 576182 761826 
810827 580237 819353 935327 800162 332877 877923 115097 580437 864326 761826 
108272 802374 193532 353275 800162 953372 678852 328779 150971 804373 618263 
082722 023748 532751 001620 533722 788524 287792 792312 043731 486432 182638 
827229 327511 016209 337225 885243 852439 328779 877923 923121 120589 864326 826383 
272292 275119 162091 372256 678852 287792 779231 792312 231216 205893 576182 
722925 481935 620915 337225 722561 225615 788524 877923 792312 923121 731205 761826 
229259 819353 275119 119469 016209 209159 372256 225615 256156 328779 779231 231216 120589 
292593 748193 193532 194698 162091 091595 159533 722561 243903 287792 792312 444793 205893 263833 
925933 481935 935327 946980 620915 915953 159533 595337 225615 885243 243903 439033 877923 923121 447933 205893 058937 826383 263833 
259335 481935 819353 353275 209159 159533 595337 953372 225615 256156 852439 439033 390332 779231 479331 169115 058937 589370 263833 638330 
593358 023748 819353 193532 532751 194698 595337 953372 533722 524390 390332 903328 792312 793316 691150 971658 312058 589370 893704 383300 
933580 237481 193532 935327 946980 953372 533722 903328 033287 923121 933169 911509 716580 373120 120589 937048 638330 383300 833003 031470 
335802 374819 935327 469800 533722 337225 678852 390332 332877 331691 165804 437312 731205 205893 383300 833003 330031 314705 
358023 748193 353275 698001 159533 337225 788524 439033 328779 877923 658043 373120 312058 058937 048643 618263 833003 330031 
580237 481935 980016 595337 561567 885243 390332 033287 779231 580437 058937 589370 486432 182638 330031 
802374 819353 800162 953372 852439 903328 332877 792312 216974 804373 589370 893704 704864 864326 826383 300314 
023748 533722 156788 903328 033287 328779 923121 169744 043731 893704 937048 048643 003147 
237481 532751 327511 337225 567885 033287 287792 231216 697444 331691 437312 937048 370486 265761 330031 031470 
374819 327511 275119 372256 678852 332877 328779 312169 974447 744479 316911 373120 370486 704864 300314 314705 
748193 751194 788524 243903 744479 444793 447933 658043 205893 048643 618263 
481935 511946 620915 091595 439033 447933 479331 580437 731205 058937 486432 182638 
819353 119469 209159 915953 159533 885243 439033 877923 479331 804373 312058 589370 864326 618263 826383 833003 
193532 194698 091595 159533 595337 953372 533722 390332 792312 793316 043731 120589 893704 486432 182638 263833 
935327 915953 595337 953372 533722 337225 903328 033287 332877 923121 974447 933169 115097 437312 937048 864326 432657 638330 
353275 953372 337225 372256 033287 332877 328779 150971 373120 731205 643265 326576 383300 314705 
532751 162091 533722 372256 722561 332877 331691 509716 043731 312058 432657 265761 330031 
327511 620915 337225 722561 225615 328779 923121 331691 316911 437312 120589 326576 657618 330031 300314 
275119 209159 225615 256156 231216 312169 933169 169115 373120 205893 265761 576182 
751194 091595 256156 788524 121697 331691 691150 731205 704864 761826 
511946 915953 561567 231216 216974 316911 911509 509716 761826 
119469 016209 209159 159533 852439 312169 169744 744479 933169 169115 911509 115097 120589 618263 
194698 162091 091595 615678 156788 524390 121697 444793 331691 115097 971658 657618 182638 
946980 915953 156788 243903 216974 447933 316911 716580 576182 826383 
469800 567885 439033 169744 479331 169115 165804 589370 761826 263833 383300 
698001 678852 697444 691150 658043 893704 618263 638330 833003 330031 
980016 231216 793316 509716 580437 937048 370486 330031 300314 
800162 390332 312169 933169 097165 804373 704864 576182 300314 003147 
001620 903328 121697 331691 691150 971658 373120 048643 761826 003147 031470 
016209 033287 312169 216974 316911 911509 716580 731205 618263 314705 
162091 722561 121697 169744 331691 169115 115097 150971 165804 312058 265761 182638 330031 
620915 225615 316911 169115 150971 120589 643265 657618 300314 
209159 256156 312169 933169 169115 691150 509716 205893 003147 
091595 561567 121697 331691 691150 911509 097165 731205 031470 
915953 615678 885243 243903 877923 216974 447933 316911 911509 115097 971658 312058 205893 618263 
159533 156788 852439 439033 779231 169744 447933 479331 169115 150971 658043 120589 058937 182638 263833 
595337 561567 524390 390332 792312 479331 793316 115097 580437 058937 589370 638330 
953372 390332 903328 792312 923121 793316 933169 150971 804373 437312 589370 383300 
533722 903328 033287 287792 923121 933169 509716 043731 437312 373120 893704 576182 833003 
337225 567885 033287 332877 877923 231216 331691 097165 437312 373120 731205 937048 643265 330031 314705 
372256 678852 332877 779231 231216 312169 971658 373120 312058 370486 432657 326576 
722561 788524 779231 792312 923121 312169 716580 120589 704864 326576 265761 
225615 231216 121697 169115 205893 265761 657618 
256156 231216 216974 691150 326576 576182 
561567 121697 911509 580437 265761 761826 
615678 216974 115097 971658 312058 657618 618263 182638 
156788 169744 150971 716580 120589 657618 576182 182638 826383 
567885 169115 097165 165804 576182 761826 263833 
678852 691150 971658 658043 576182 618263 638330 
788524 716580 704864 761826 
885243 877923 658043 804373 205893 048643 618263 826383 833003 
852439 312169 744479 580437 058937 486432 182638 
524390 121697 444793 804373 589370 864326 826383 638330 383300 
243903 877923 216974 444793 447933 043731 205893 893704 048643 643265 263833 383300 833003 
439033 779231 444793 447933 479331 658043 437312 937048 486432 432657 263833 638330 833003 330031 
390332 792312 479331 793316 580437 437312 370486 486432 638330 383300 330031 300314 
903328 923121 793316 933169 971658 804373 373120 937048 864326 383300 300314 003147 
033287 231216 933169 043731 731205 058937 643265 432657 833003 003147 031470 
332877 312169 331691 312058 432657 326576 330031 031470 
328779 312169 744479 120589 326576 314705 
287792 444793 437312 205893 486432 265761 
877923 447933 804373 373120 864326 826383 833003 
779231 479331 043731 731205 330031 
792312 793316 437312 300314 
923121 933169 043731 373120 003147 
231216 793316 331691 509716 437312 731205 761826 031470 
312169 933169 316911 911509 097165 373120 312058 618263 314705 
121697 331691 115097 971658 120589 432657 182638 
216974 316911 150971 716580 326576 
169744 169115 509716 165804 893704 265761 
697444 691150 097165 658043 893704 937048 657618 
974447 971658 580437 937048 370486 003147 
744479 804373 704864 031470 
444793 804373 043731 205893 048643 314705 
447933 043731 437312 058937 048643 486432 263833 
479331 043731 437312 589370 486432 638330 330031 
793316 509716 437312 893704 864326 761826 383300 300314 
933169 097165 373120 937048 643265 833003 003147 
331691 971658 731205 432657 330031 031470 
316911 716580 312058 326576 330031 300314 314705 
169115 097165 165804 
691150 971658 373120 638330 031470 
911509 716580 731205 120589 314705 
115097 165804 312058 205893 
150971 120589 058937 330031 
509716 589370 300314 
097165 643265 003147 
971658 312058 937048 432657 657618 182638 
716580 120589 326576 576182 826383 
165804 205893 893704 704864 265761 761826 263833 
658043 058937 937048 048643 657618 618263 638330 833003 
580437 058937 589370 370486 486432 182638 330031 
804373 205893 589370 704864 864326 826383 833003 300314 
043731 058937 893704 048643 643265 265761 263833 330031 003147 
437312 937048 486432 432657 657618 638330 300314 
373120 370486 576182 383300 003147 
731205 643265 761826 833003 031470 314705 
312058 937048 432657 182638 330031 314705 
120589 370486 326576 826383 
205893 704864 265761 263833 
058937 048643 638330 003147 
589370 638330 383300 031470 
893704 383300 833003 314705 
937048 657618 833003 330031 
370486 326576 576182 330031 300314 
704864 761826 300314 
048643 618263 003147 
486432 576182 182638 
864326 761826 826383 
643265 618263 
432657 182638 
326576 826383 
265761 263833 
638330 031470 
383300 314705 
<------------Next-300-Signals------------>
622095 148035 927590 759085 692304 923040 081995 688325 832535 356098 623637 691245 523294 329435 321896 646798 601315 278085 007295 729590 621290 129016 612839 128399 422434 621513 802665 172475 961895 232077 
220954 480357 275908 590850 230404 819956 608754 730164 325356 560985 637154 523294 232943 294353 218967 780854 072959 295907 212901 290161 283997 261384 422434 224348 026658 665854 724759 247594 618953 243384 320778 
209540 803579 927590 908505 869230 923040 304040 404070 199560 087542 669730 301641 253560 609850 371543 232943 808549 549860 729590 907860 399710 224348 215130 266585 658547 247594 189532 207783 
095407 035798 798927 275908 085053 692304 230404 040407 040708 995608 875429 697301 016416 535609 098507 715438 245617 426467 315327 085498 498600 986007 295907 078606 997106 064787 019337 188707 585471 759467 895324 841907 723207 077837 
954070 989275 927590 759085 923040 304040 404070 956087 754298 973016 253560 356098 985071 850710 154386 456175 264679 981760 153278 854986 986007 860072 959078 907860 971064 818870 887078 854717 594671 953243 384190 419078 232077 
540706 590850 505386 230404 040407 040708 560875 542986 535609 560985 850710 507108 710866 543869 561753 842646 646798 532780 549860 600729 590786 078606 997106 787726 188707 870781 180266 547172 946713 841907 190783 320778 
407068 304040 404070 407081 429866 164168 356098 507108 108667 967338 426467 467981 327808 007295 959078 907860 786062 971064 106478 877261 887078 707818 802665 467136 104618 419078 907837 207783 
070685 759085 040407 040708 070819 081995 560875 641688 560985 071086 086673 175315 673384 278085 007295 072959 590786 078606 860621 710647 064787 772613 870781 078180 802665 026658 266585 172475 046189 190783 078372 077837 
706856 590850 505386 708199 819956 608754 429866 016416 416883 325356 609850 710866 667356 356236 912456 753152 321896 733842 798176 780854 907860 786062 606212 106478 787726 726138 434836 707818 781802 026658 665854 724759 791046 461896 907837 778376 
068561 908505 053869 199560 087542 298669 164168 168832 253560 098507 108667 673562 562363 438691 124561 617531 218967 467981 760131 808549 078606 860621 062129 290161 064787 877261 348362 362151 078180 266585 658547 910461 618961 078372 
685614 085053 692304 995608 608754 986697 641688 688325 535609 985071 086673 735623 623637 637154 386912 245617 175315 189673 673384 384264 679817 601315 780854 085498 606212 901612 772613 384224 483621 621513 665854 585471 679104 104618 189618 895324 
856148 850538 956087 754298 866973 164168 356098 850710 507108 866735 356236 869124 456175 753152 896733 842646 646798 153278 808549 854986 959078 016128 106478 726138 842243 224348 836215 328188 887078 026658 658547 854717 046189 896189 953243 
561480 590850 505386 869230 560875 542986 669730 641688 560985 071086 562363 561753 531523 467981 981760 532780 549860 590786 621290 161283 064787 261384 243483 281887 078180 266585 585471 367910 461896 961895 532433 
614803 692304 697301 416883 609850 710866 617531 294353 679817 817601 013153 327808 212901 612839 647877 613842 434836 621513 818870 781802 665854 679104 618961 618953 
148035 759085 908505 168832 688325 832535 108667 866735 175315 329435 943533 176013 131532 278085 129016 128399 138422 348362 193375 188707 818026 172475 189532 
480357 590850 085053 040407 986697 688325 883253 325356 667356 294353 435332 426467 315327 780854 986007 283997 710647 483621 019337 281887 188707 180266 671367 
803579 892759 908505 850538 053869 404070 708199 875429 866973 883253 832535 253560 673562 543869 943533 264679 153278 808549 860072 600729 839971 106478 513019 193375 933759 818870 887078 802665 713679 896189 
035798 275908 085053 538692 040708 081995 995608 754298 535609 356098 735623 715438 438691 435332 533218 646798 532780 085498 007295 016128 064787 130193 933759 337596 633328 332818 026658 136791 320778 
357989 759085 053869 386923 407081 956087 542986 356098 560985 356236 154386 386912 152329 353321 332189 467981 327808 854986 072959 301933 337596 375963 333281 328188 367910 046189 896189 338419 207783 
579892 590850 538692 070819 560875 429866 168832 609850 673562 543869 523294 321896 733842 679817 549860 729590 478772 613842 781802 547172 679104 461896 961895 189532 078372 077837 
798927 386923 708199 298669 688325 098507 108667 735623 218967 338426 798176 315327 498600 295907 283997 710647 787726 138422 188707 818026 658547 717247 759467 791046 618961 618953 895324 841907 783723 723207 778376 
989275 908505 869230 081995 560875 986697 688325 883253 985071 086673 691245 456175 329435 189673 384264 981760 153278 986007 007295 959078 839971 384224 836215 193375 887078 180266 585471 172475 189618 961895 189532 953243 419078 
892759 692304 819956 608754 875429 298669 883253 832535 850710 866735 912456 561753 152329 294353 332189 896733 842646 532780 808549 600729 072959 590786 062129 612839 399710 842243 362151 933759 870781 802665 854717 724759 896189 895324 190783 
927590 923040 199560 087542 986697 253560 124561 617531 523294 943533 321896 967338 981760 327808 007295 729590 907860 621290 128399 997106 621513 337596 247594 367910 961895 384190 907837 
275908 230404 040708 995608 875429 535609 507108 715438 245617 175315 232943 218967 327808 278085 085498 072959 295907 078606 212901 283997 224348 215130 375963 475946 679104 841907 
759085 407081 956087 754298 356098 560985 071086 154386 456175 753152 329435 278085 854986 729590 959078 786062 129016 759633 266585 759467 791046 419078 
590850 070819 199560 560875 560985 609850 850710 710866 543869 561753 294353 532780 780854 549860 498600 590786 907860 290161 399710 596333 818870 665854 594671 190783 
908505 708199 995608 608754 688325 832535 098507 507108 108667 943533 601315 278085 808549 498600 986007 007295 907860 078606 901612 997106 188707 802665 266585 658547 961895 907837 
085053 081995 087542 883253 325356 985071 071086 086673 735623 561753 294353 189673 176013 013153 780854 085498 986007 072959 786062 375963 887078 026658 665854 585471 618953 783723 
850538 040708 754298 832535 253560 356098 850710 866735 356236 715438 617531 943533 896733 967338 760131 131532 153278 808549 854986 860072 959078 860621 726138 759633 887078 870781 658547 854717 189532 324338 837232 320778 
505386 407081 542986 325356 535609 560985 507108 071086 667356 562363 154386 175315 435332 673384 601315 315327 532780 854986 590786 261384 596333 585471 475946 895324 243384 207783 778376 
053869 070819 429866 298669 253560 710866 673562 543869 753152 152329 353321 733842 013153 153278 549860 072959 907860 062129 612839 613842 513019 933759 759467 713679 046189 953243 433841 077837 
538692 708199 298669 986697 168832 535609 108667 735623 438691 531523 523294 435332 533218 733842 338426 131532 532780 498600 078606 901612 128399 478772 138422 348362 130193 337596 547172 594671 136791 532433 338419 078372 837232 
386923 081995 986697 866973 416883 688325 883253 356098 086673 735623 356236 371543 386912 531523 232943 353321 189673 896733 338426 384264 176013 315327 986007 786062 016128 283997 787726 384224 483621 301933 375963 596333 946713 367910 618953 384190 783723 372320 
869230 819956 199560 866973 669730 168832 883253 832535 609850 850710 866735 356236 869124 315232 329435 896733 967338 760131 549860 860072 729590 860621 621290 161283 839971 399710 877261 842243 836215 215130 019337 759633 963332 818870 467136 367910 189532 837232 
692304 995608 608754 697301 688325 098507 667356 562363 637154 691245 152329 294353 673384 601315 498600 295907 212901 612839 997106 261384 422434 151301 193375 596333 633328 665854 671367 679104 895324 243384 372320 
923040 956087 973016 253560 985071 623637 523294 943533 733842 981760 986007 729590 959078 907860 621290 129016 971064 613842 224348 513019 933759 963332 791046 953243 433841 723207 
230404 730164 535609 236371 637154 232943 338426 780854 295907 212901 290161 261384 138422 422434 243483 130193 247594 679104 910461 532433 243384 338419 232077 
304040 301641 356098 609850 371543 384264 808549 907860 399710 384224 224348 301933 367910 791046 104618 324338 384190 372320 
040407 016416 098507 245617 426467 085498 986007 295907 078606 710647 064787 647877 243483 019337 188707 759467 910461 046189 841907 723207 077837 
404070 609850 985071 456175 264679 498600 860072 959078 907860 106478 478772 434836 818870 887078 594671 104618 384190 419078 232077 
040708 995608 641688 098507 850710 507108 646798 327808 085498 600729 590786 078606 016128 064787 188707 870781 026658 946713 046189 841907 190783 320778 
407081 956087 697301 301641 416883 985071 507108 071086 438691 617531 467981 817601 278085 007295 907860 877261 483621 333281 887078 870781 707818 467136 433841 419078 907837 207783 
070819 560875 875429 973016 016416 850710 071086 710866 543869 175315 679817 176013 780854 600729 072959 078606 062129 612839 772613 513019 332818 870781 707818 078180 046189 338419 078372 077837 
708199 608754 754298 298669 730164 507108 108667 438691 753152 332189 798176 760131 808549 600729 007295 729590 062129 128399 726138 130193 328188 707818 078180 724759 713679 046189 896189 338419 384190 778376 
081995 087542 986697 688325 560985 071086 086673 386912 691245 321896 981760 601315 085498 007295 072959 621290 283997 301933 281887 781802 461896 961895 384190 841907 
819956 542986 429866 866973 016416 883253 325356 609850 710866 667356 869124 912456 218967 842646 817601 013153 854986 072959 212901 129016 839971 019337 818870 818026 475946 618961 618953 841907 419078 
199560 429866 298669 669730 164168 253560 609850 098507 108667 673562 124561 189673 981760 131532 549860 498600 729590 907860 129016 290161 399710 193375 180266 759467 189618 189532 190783 
995608 298669 986697 697301 641688 535609 098507 985071 507108 735623 715438 245617 967338 817601 327808 085498 498600 986007 295907 959078 078606 901612 997106 026658 594671 104618 189618 895324 
956087 986697 973016 416883 356098 985071 071086 356236 154386 456175 426467 176013 278085 854986 986007 959078 786062 971064 064787 281887 266585 658547 854717 759467 946713 046189 896189 953243 907837 232077 
560875 866973 168832 560985 710866 866735 562363 363715 543869 456175 561753 264679 760131 780854 549860 860072 590786 860621 647877 193375 818870 266585 665854 585471 547172 172475 594671 461896 961895 320778 
608754 669730 688325 609850 108667 667356 637154 561753 673384 646798 601315 780854 808549 600729 606212 478772 933759 188707 665854 658547 471724 724759 679104 618961 618953 207783 
087542 098507 086673 673562 371543 386912 617531 733842 131532 808549 085498 007295 786062 787726 613842 337596 887078 781802 658547 547172 717247 247594 189532 078372 837232 077837 
875429 535609 735623 715438 869124 175315 152329 338426 315327 808549 085498 600729 072959 860621 062129 877261 138422 375963 870781 818026 585471 471724 172475 475946 896189 895324 338419 372320 
754298 164168 356098 356236 715438 154386 753152 523294 533218 384264 646798 153278 085498 854986 007295 729590 959078 621290 726138 384224 224348 759633 707818 854717 717247 724759 759467 104618 953243 324338 384190 723207 
542986 641688 560985 071086 562363 154386 543869 912456 232943 332189 842646 467981 532780 854986 549860 072959 590786 212901 842243 243483 547172 475946 046189 532433 243384 841907 
429866 416883 325356 609850 710866 543869 124561 329435 321896 426467 679817 327808 549860 729590 907860 129016 422434 434836 180266 475946 759467 467136 461896 433841 419078 
298669 253560 535609 098507 108667 543869 438691 245617 294353 218967 264679 798176 278085 808549 498600 295907 078606 290161 128399 348362 802665 594671 713679 618961 896189 338419 
986697 356098 985071 108667 086673 623637 438691 386912 245617 189673 426467 646798 981760 085498 986007 786062 901612 283997 710647 483621 281887 188707 026658 946713 136791 189618 961895 384190 907837 
