09066 09664 
90669 96649 90039 
66955 88955 
69557 49577 69927 89558 69707 
95574 95775 95588 
55749 05949 
57495 59492 
49577 44177 
57750 37550 17730 
77502 75509 84502 77282 78542 77308 
75029 75509 75469 45022 
50293 50223 
02939 05949 02233 
29398 42398 
93987 23986 48987 
39878 39864 89873 
98786 98646 98732 
78620 71120 39620 
86200 46900 96204 87220 
62001 64401 69003 62042 22031 72201 
20019 47019 90039 20313 22018 
00191 60111 70191 00396 03131 
01911 01119 11921 01912 31311 
19115 19211 19121 11015 13110 
91150 71120 
11509 11205 75509 31529 
15096 55091 15296 
50966 50915 52960 52926 
09664 39864 
96649 98646 
66492 26992 59492 
64928 69927 94925 67728 
49283 49254 04283 42203 
92834 92114 42831 
28343 15343 28316 20313 
83432 53433 85482 85422 
34326 34334 23326 
43269 44239 45469 33267 
32699 32677 
26992 26772 25292 26032 
69927 69707 
92760 52960 
27601 29603 24641 
60111 70191 40711 60321 
01119 01912 07112 09159 
11192 31102 
11921 19121 11028 
19211 19121 
92114 12154 
21147 21544 
11470 15440 31670 
14701 34711 64401 16703 
47019 47110 46079 44015 
70191 71101 
01912 07112 03962 
91215 11205 11015 
12154 12059 10153 17854 
21544 20594 01534 
15440 15343 06440 
54407 44607 64401 14417 
44071 46079 44015 44177 
40711 34711 
07112 07332 47110 
71120 71101 
11205 11015 
59492 59722 
49254 79754 
92543 97546 92603 
75509 75469 
55091 55881 54691 
91597 97697 
59722 28722 
97222 77282 87220 
72221 73231 72825 72201 
22218 32208 22018 
22188 22087 22018 20183 
58814 54824 38414 
88144 84144 
81446 46446 41441 
14464 86464 64460 15364 82464 14417 
44646 98646 64644 46446 44607 64546 48246 24641 
46467 86464 46446 45469 46418 
64677 64644 44607 32677 44177 
46770 46079 46910 46900 26772 41773 76970 
67707 60797 67728 69707 
77073 67033 73083 
70733 70337 
07332 22332 
73322 03022 23326 
33220 39620 30228 33267 54220 87220 
32208 30228 42203 72201 
22087 22031 22018 
20873 89873 20313 20183 
08730 98732 17730 
87304 87323 77308 
73047 73083 
75641 24641 
56419 46418 
64196 69106 64546 64182 
41968 41828 
68634 64644 
63471 64401 
34711 31311 
47110 46910 13110 
71101 31102 72201 
11015 44015 11028 
10153 40153 20183 
01534 01536 01838 
15343 15364 
43344 03374 
33444 36454 33748 38414 
23986 23326 83976 
39864 39769 
98646 97546 48246 
86464 36454 82464 
64644 10644 64546 24641 84144 
46446 06440 48246 46418 41441 
64460 64401 
44607 41617 44177 
60797 69707 
97546 64546 
75469 45469 
54691 54690 24641 
46910 46900 46418 76970 
69106 69003 69707 
40153 20183 
01536 01838 
15364 18384 
36454 38414 
54690 54220 
46900 76970 
69003 67033 29603 69707 
90039 96030 30839 
00396 08397 
03962 03022 
39620 31670 
20428 30228 
04283 02284 02233 
42831 82841 22031 
28316 23326 28416 20313 
83167 33267 84161 
31670 32677 
98732 28722 
87323 87220 
73231 03131 72201 
32315 32165 31311 
23152 28252 
31529 82529 
15296 25292 
52960 52926 
29603 92603 
96030 26032 
60302 60321 
03022 45022 
30228 50223 
02284 02233 18284 
22845 72825 82841 
28450 28252 28416 
45022 85422 
50223 54220 
02233 42203 
22332 26032 22031 
26772 26032 28722 
28252 28722 
92603 42203 
26032 22031 
65854 17854 
58548 78542 
85482 85422 
54824 54220 
41828 11028 01838 
18284 10287 18384 
82841 83841 
28416 38414 
84161 84144 
54220 87220 
42203 72201 
22031 22018 
20313 20183 
<------------Next-300-Signals------------>
54876 58076 64873 24871 
48761 46731 48730 48712 
87612 82712 86212 55612 
76129 56124 
61298 71258 61242 
12983 12587 16183 12643 
29838 05838 
98387 58389 
83873 83897 53773 64873 
38737 37735 48730 
87373 78373 87306 
73738 83735 73518 73488 
37382 37354 
73827 83897 73557 
38271 38975 34171 01271 
82712 86212 41712 12716 48712 12512 
27125 88125 62125 17124 27161 27245 87125 
71258 81254 21257 71244 71618 72458 71251 
12587 12545 18507 12574 42487 12512 
25879 26279 24871 
79881 72281 90881 
98812 08811 48712 
88125 62125 88119 87125 
81254 21257 01234 71244 51264 46254 71251 
12545 12574 12341 12446 12643 62540 12512 
25452 25942 97452 25402 
54520 50580 24580 74524 54023 
45205 35405 43245 45805 45247 40235 24205 
52057 54058 58055 42052 
20572 20862 20527 
72281 71251 
87837 83897 
78373 75673 74343 
83735 56735 33135 37735 
37354 67351 34324 67314 31351 77355 
73540 73170 73518 73144 73557 62540 
35405 35185 45805 25402 
54058 45058 58055 54023 
40583 50580 80553 
05838 05807 05538 
58389 55386 
89753 80763 80553 19353 
97530 93537 
75302 25402 
53029 54023 
30292 31692 30632 
29292 09262 
92920 93620 92627 12420 
29207 21257 24205 
92072 52272 42052 
20721 22724 20527 
07213 06273 07143 07893 67713 05273 
72130 73170 77133 
21306 27906 87306 
13062 73012 53862 13512 73063 
30627 30127 38620 92627 20527 30632 
06273 01271 26279 05273 
62731 46731 62790 52734 
27317 23417 67314 27348 
73170 73144 
31704 31444 
04756 24716 
47567 47160 
75673 44673 05273 
56735 46731 37735 52734 
67351 67314 97301 31351 77355 
73518 73012 71618 13512 73557 73488 
35185 33135 35126 
50714 52734 50464 
07143 07893 77133 
71437 71339 
14370 64360 13390 
43707 43601 
37078 39088 
78936 70926 
89362 09262 
93620 38620 92627 90690 
36208 86202 33908 
62086 69286 62025 
20862 53862 
08621 38620 08811 
86212 36012 86852 86202 
62125 60123 62025 64625 87125 
21257 20259 71251 
12574 02594 12512 
25743 25942 
57434 59424 52734 50464 
74343 94243 
43432 42433 
34324 74524 34884 06324 24424 
43245 27245 45247 40235 48845 63244 44248 
32450 72458 12420 88450 32442 
24505 24580 24205 84504 
45058 42052 45046 
50580 24580 
05807 45805 
58076 58055 
80763 80553 
39826 35126 
98264 51264 
82643 12643 
26436 26436 
64360 64369 
43601 43693 71601 
36012 73012 16011 
60123 30127 60110 
01234 71244 01271 51264 
12341 12446 14441 18331 12643 
23417 24467 
34171 24871 
41712 48712 
17124 56124 87125 
71244 73144 31444 51264 61242 63244 71251 
12446 14441 12716 12643 12420 32442 
24467 24424 
44673 64973 43693 64873 
46731 49730 16771 48730 
67314 67713 
73144 63244 
31444 32442 
44416 24716 
44164 47160 
16497 46487 
64973 64873 
49730 48730 
97301 87306 
73012 13512 73063 
30127 35126 10167 20527 
01271 01101 01677 05273 71251 
12716 24716 11016 12512 
27161 47160 
71618 71601 
61833 64873 
18331 24331 
83316 43313 87306 
33169 33135 
31692 30632 
86852 86202 
85227 45247 
52272 52471 
22724 52734 24424 
27245 24205 27348 
72458 73488 
45805 48845 
62025 64625 
20259 26279 
25942 25402 
59424 56124 50464 24424 
94243 44248 
42433 42487 
24331 24871 
43313 43693 
33135 37735 
31351 71251 
13512 12512 
51264 50464 
39745 37735 
74524 84504 24424 
45247 45046 44248 
71601 71251 
16011 16771 
93537 73557 
35377 35570 
77355 02355 
73557 23556 
35570 35561 
09262 06462 
62790 62540 
27906 87306 
79069 73063 
56124 06324 
61242 63244 
04648 44248 
46487 42487 
64873 24871 
48730 48712 
<------------Next-300-Signals------------>
25649 25615 
56492 86432 
64923 77923 64326 
49232 79231 
92325 22925 92312 
23252 43452 22212 29259 
32525 34520 22925 37225 
25250 05550 29259 
52502 55504 
25021 23121 
50218 80318 57618 
02181 03184 02221 
21817 21697 
18172 18902 08272 
81727 82722 
17273 27293 18263 
72737 72937 52037 
27374 29378 20377 04374 02374 
73745 43742 23748 
37453 37420 37481 
74533 59533 
45333 41433 45203 25933 95337 47933 
53334 59335 53372 
33340 61340 33580 38330 83300 
33404 34704 13407 93704 33003 
34046 34077 37048 
04644 04374 04864 
44143 49943 62143 48193 44793 48643 
41433 21434 47933 
14338 14345 
43385 43265 
33851 91851 32751 
38516 18511 31216 
85162 35962 85117 00162 
51623 01613 59621 58023 01620 
16236 16134 16209 
62369 12169 
23698 23748 94698 21697 
36980 22980 33580 46980 16580 
69803 29800 69800 65804 63833 
98031 98008 98001 30031 
80318 80016 00314 
03184 73194 03147 
31843 31949 
18434 16134 21434 
84347 14345 74447 
43470 43452 03770 44479 31470 
34704 37705 93704 14705 
47044 97444 37048 
70448 74447 70486 
04486 70486 
44862 04864 
48622 08722 48643 
86229 87229 21229 27229 16209 
62298 72292 12291 72292 62091 
22980 22922 22918 22925 46980 
29800 69800 
98008 78108 98001 
80087 81082 80237 80016 80437 
00872 08272 00162 
08722 08272 82722 33722 
87229 21229 27229 37225 
72292 22212 12291 72292 72256 
22922 22212 22122 22918 82722 22925 
29227 21229 27229 29259 
92272 90222 22212 08272 72292 92312 
22729 22122 21229 82722 27229 22925 28779 
27293 27229 
72937 52037 58937 
29378 20377 89370 
93789 95589 93704 
37892 35802 87792 37312 
78927 77923 58937 
89270 89370 
92701 07701 32751 98001 93704 
27010 77016 17810 27511 
70107 70161 78108 
01070 03770 01890 01620 31470 
10709 16209 11509 14705 
07095 77055 
70955 77055 70555 20915 
09558 05550 09159 
95589 20589 
55899 05893 
58991 50971 58937 
99194 73194 94994 51194 
91949 31949 11946 
19490 19499 19469 
94907 94994 
49077 34077 
90770 40773 03770 
07701 07731 37705 
77016 77319 77055 80016 
70161 00162 
01613 01620 
16134 16974 
34077 32877 
40773 44793 
07731 43731 
77319 74819 75119 37312 
73194 51194 73120 
31949 11946 
19499 19469 
94994 94698 
49943 43903 47933 48643 
99435 59335 
94359 93358 
35962 35802 
14345 14705 
43452 43742 
34520 37420 33580 
45203 85243 43903 
52037 50437 52439 58937 
37705 37225 31205 14705 
55504 65804 
55043 58023 85243 58043 
50437 80237 52439 80437 58937 
04374 02374 04373 04864 00314 
43742 23748 33722 43731 
37420 37481 37225 31470 
74201 79231 
42018 22918 12058 
20189 29185 20589 
01890 01620 05893 
89022 81082 82722 
90222 90332 
22212 72292 92312 
22122 82722 22925 23121 
21229 27229 29259 
12291 72292 62091 
22918 22925 20915 
29185 69115 
91851 91150 
18511 27511 16911 
85117 75119 
51178 51194 
82722 33722 87792 
27229 37225 
72292 72256 
22925 20915 
29259 09159 
92593 91595 
25933 15953 47933 
59335 59533 79331 
93358 03328 93316 
33580 33287 16580 
35802 65804 
58023 58043 
80237 80437 
02374 04373 00314 
74819 75119 
48193 44793 48643 
19353 15953 
93532 90332 
35327 95337 
53275 53372 43265 
32751 32657 
27511 22561 
19469 12169 
46980 16580 
69800 65804 
16209 11509 
20915 25615 
59533 39033 
95337 90332 
37225 31205 
43903 47933 33003 
39033 33003 30031 
90332 92312 
32877 32657 
77923 47933 
79231 79331 
92312 93316 37312 
23121 73120 
31216 31205 
12169 33169 
21697 31691 
16974 16911 
58043 48643 
80437 86432 
89370 83300 
64326 61826 
<------------Next-300-Signals------------>
62209 62129 
20954 80854 
09540 04040 99560 09850 08549 29590 
95407 40407 95608 98507 95907 
54070 04040 04070 59078 
40706 40407 40708 90786 
07068 07081 07108 07860 87078 07818 
70685 60985 78085 70781 
06856 09850 
68561 24561 18961 
85614 45617 89618 
56148 56098 56175 16128 26138 
61480 61283 61384 
14803 16883 
48035 78085 
80357 80854 
03579 08549 13679 
35798 46798 85498 36791 
57989 67981 54986 
79892 79817 
98927 98507 18967 95907 
89275 89673 
92759 72959 33759 24759 
27590 29590 21290 37596 47594 
75908 95608 95907 75963 75946 
59085 56087 78085 59078 
90850 09850 80854 
08505 98507 08549 
85053 83253 85071 
05386 25356 54386 
53869 53560 43869 
38692 38691 38422 
86923 66973 86673 86912 83723 
69230 69730 
92304 97301 95324 
30404 30164 
40407 41907 
40708 46798 20778 
07081 67981 07783 
70819 79817 
08199 08549 28399 
81995 83997 61895 
19956 12456 18953 
99560 53560 49860 29590 99710 
95608 35609 98600 95907 
56087 56098 86007 
60875 60985 60072 61895 
87542 89532 
54298 56098 53278 
42986 42646 54986 
29866 10866 21896 49860 29016 
98669 08667 98600 
86697 86673 86007 83997 
66973 86673 
69730 66735 99710 
97301 17601 97106 51301 
73016 71086 76013 29016 13019 
30164 37154 90161 30193 
01641 01612 
16416 12456 
68832 63332 
83253 13153 53243 83723 
32535 31532 32433 
25356 67356 
53560 73562 
35609 35623 
56098 46798 59078 
60985 67981 66585 
09850 49860 07860 
98507 98600 95907 88707 58547 
85071 87078 85471 
50710 99710 54717 
07108 27808 97106 07818 
71086 78085 71064 91046 
10866 80266 10461 
08667 18967 02665 
86673 89673 
66735 63715 96733 66585 
67356 67338 67136 
35623 31523 
23637 23207 
36371 39971 36791 
71543 31523 21513 
15438 15232 85498 15130 
54386 54986 
43869 49860 
38691 36791 
86912 86062 06212 
69124 62129 79104 
91245 91046 
61753 61283 
17531 17601 
75315 01315 
53152 13153 
31523 31532 21513 
15232 35332 15130 37232 
52329 53321 62129 72320 
23294 21290 23207 
32943 42243 32433 
29435 22434 
94353 96333 
43533 43483 
35332 31532 63332 37232 
53321 83621 51301 33328 
33218 53278 36215 33328 33281 32818 
32189 32780 62129 46189 96189 
21896 21290 61896 61895 
18967 18961 18953 
89673 59633 89618 
96733 96333 46713 90783 
67338 63332 67136 24338 
73384 61384 43384 
33842 13842 33841 
38426 38422 18026 38419 
84264 84224 80266 
42646 42243 
26467 59467 
64679 94671 13679 
46798 46713 36791 
67981 67910 
79817 77837 
98176 97106 78376 
17601 12901 
76013 72613 46713 
60131 60621 90161 62151 67136 
01315 01612 
13153 18953 
31532 89532 37232 
15327 19337 95324 
53278 59078 53243 
27808 07818 
78085 78180 
80854 65854 
08549 58547 
85498 85471 
49860 07860 
98600 78606 
86007 86062 88707 
29590 21290 
95907 41907 
59078 87078 19078 
90786 70781 90783 
07860 07818 07837 
78606 78376 
60621 83621 
06212 01612 36215 
62129 62151 
12901 18961 
90161 10461 
01612 04618 
16128 26138 
61283 61384 
97106 67136 
71064 71724 71367 
10647 17247 
64787 54717 
47877 47172 07837 77837 
78772 78372 78376 
87726 83723 
26138 28188 26658 24338 
61384 43384 
13842 33841 
38422 38419 
42243 53243 
22434 32433 
24348 24338 
43483 43384 
48362 78372 
83621 83723 
13019 13679 
33759 24759 
37596 47594 
75963 75946 
33281 33841 
32818 07818 
28188 78180 
81887 81802 
87078 19078 
70781 90783 
07818 04618 07837 
90783 07783 
07837 77837 
78372 78376 
<------------Next-300-Signals------------>
66273 46293 
62734 82934 62244 62933 
27342 29349 27712 
73423 78483 
34230 36430 
42308 52328 42918 
23081 23282 43011 
30816 30112 
08162 48862 07862 
81629 01649 91829 88620 44629 41529 91639 
16291 16494 44291 18292 46293 15293 16393 
62912 42918 62933 
29128 29182 29398 
91283 95183 
12831 12771 13931 13531 
28316 18916 
83164 30164 83244 89163 
31647 01649 31057 
16477 16494 
64779 61479 96779 
47796 67791 
77963 77910 17933 
79633 79013 79103 70133 79336 
96336 79336 70336 
63362 93360 03368 
33621 33601 33685 
36218 36014 36858 96018 
62185 66155 68585 60189 
21852 41832 24152 
18523 18324 
52328 82928 92828 
23282 43272 29182 29282 28287 
32829 32723 91829 92828 82879 22849 
28293 18292 28287 28792 46293 15293 28493 
82934 82928 62933 85924 52939 84936 
29349 29330 29398 22849 
34977 54957 34127 
49777 59677 49576 41277 
97778 96779 
78483 28493 
84836 14886 84936 
48364 18324 48604 48862 49365 
83643 83244 
36430 16930 
64301 24601 69304 01301 
43011 46016 13016 
30112 30164 
01124 01414 
12460 92260 
24601 22606 33601 19601 
46016 13016 26066 36014 44416 96018 
60169 30164 60665 90179 60141 60489 60189 
01693 01649 01793 81393 01891 
16930 17933 95930 13931 
69304 59300 
93045 93006 93135 
30459 60489 98459 
04596 66596 04895 84591 
45965 65967 45919 49365 
59654 59677 59034 
96544 98534 
65446 22446 
54461 24462 74441 
44614 48604 44629 44416 
61479 60489 61559 
14790 15590 
47901 76901 48951 47661 
79013 79103 57013 69017 39313 
90130 70133 90179 95930 93170 93135 
01301 05701 01338 01891 
13016 13386 93006 17006 18916 
30164 30060 
01649 06659 91639 
16494 16393 
64943 62933 
49432 41832 
94327 34127 
43272 41277 
23929 24429 83959 
39299 39593 
99141 60141 90341 59241 
91418 01414 41448 51488 92415 96018 
14183 14144 14486 95183 14886 
41832 51839 48862 
18324 18395 
83244 86224 62244 87444 
32442 22446 
24429 24462 44629 
44291 46293 84591 
42918 45919 
29182 24152 
91829 51839 41529 91639 
18292 28792 18395 88592 15293 
82928 87922 85924 
82879 22849 
28792 27712 88592 28493 
87922 77122 85924 
79226 79336 71221 
92260 93360 91960 
22606 00606 22446 41606 
26066 06069 16068 
60665 60698 60688 70065 
06659 06069 00656 
96779 95769 90179 
79103 70133 89163 
91031 91639 
10310 35310 
03105 93135 53100 
31057 30087 31353 31002 
10570 15590 
57013 17033 
70133 70336 
01338 03368 
13386 14486 14886 
38675 33685 
86754 86224 
67549 61559 
69017 39317 
90179 93170 60189 
01793 21703 81393 01891 
17933 17033 62933 13931 
79336 70336 29330 
93360 03368 93300 93170 91960 
33601 33685 33008 19601 
36014 96018 
60141 90341 60189 
01414 03412 
41448 51488 
14486 14886 44416 
44860 48862 44160 
48604 41606 
86048 16068 96018 
60489 60688 60189 
04895 01891 
48951 58551 
89518 85514 
51839 52939 91639 
18395 16393 
39593 39313 
95930 91960 
59300 29330 93300 53100 
93006 93300 33008 17006 
30060 30087 70065 
00606 41606 00656 
06069 16068 06568 
60698 60688 65688 
06985 06888 56885 
69853 68859 
61559 68859 41529 
15590 15293 
77122 78622 
22170 93170 
21703 31700 
17033 17006 
03368 06568 
36858 06888 
68585 68881 
85514 85924 
48862 07862 
88620 78622 
86207 86224 
86224 85924 
62244 02284 
22446 22849 
24462 24152 
44629 41529 
46293 15293 16393 
62933 52939 63931 
29330 29398 
93300 93170 53100 
33008 31002 
16068 06568 96018 
60688 65688 60189 
06888 06568 56885 
68881 68859 
81393 16393 31353 
13931 63931 13531 
39317 39313 35310 
93170 93135 53100 
31700 31002 
68859 98459 
88592 84591 
15293 16393 
<------------Next-300-Signals------------>
04696 64896 18696 
46964 48965 16164 86969 96984 46174 
69641 89651 61645 69698 69846 
96419 96189 46489 96516 
64194 64896 74394 64984 
41948 43943 61748 40648 45938 49848 
19489 46489 11499 17483 12459 52489 
94898 64896 24897 
48987 48965 96987 43287 48975 28997 
89878 69872 89758 89979 49848 
98786 98723 90706 98486 
87868 07818 82668 87628 84863 
78688 79698 78188 70628 85688 
86887 96987 81882 06287 56885 
68872 69872 62874 68850 
88722 98723 28762 91722 
87229 87236 88299 87628 17220 
72296 70996 75796 82216 72206 
22961 22162 22064 
29618 69698 79698 52618 
96189 46489 96987 96984 26183 
61890 64896 61834 68850 
83351 33341 89651 
33519 33411 
35197 25157 31097 
51974 51570 
19748 61748 89758 49848 
97488 17483 97585 98486 
74884 74394 34824 74834 75854 64984 
48844 43834 48245 48346 49848 
88446 48346 83466 98486 
84467 84617 83466 84863 
44679 47579 
93334 43834 
33341 38348 18341 33791 
33411 83414 33791 
34118 60118 34668 34140 
41184 01186 46174 91124 
11846 11869 69846 11245 
18464 16164 98461 
84648 84617 34668 40648 82668 87628 85688 
46489 46685 06482 52489 
64896 69846 64826 24897 
48965 49955 48245 09965 48266 48975 40925 
89651 99652 89758 
96516 99556 96520 94526 
65161 45261 
51616 52618 
16164 46174 
61645 61748 11245 
16455 12459 85455 
64555 54553 
45553 55653 25253 54553 45533 
55538 56537 45938 52535 45533 55337 
55386 59382 55337 
38601 38221 48631 
86011 85091 86310 
60118 40138 
01186 01387 
11869 11499 18829 
86969 57969 89979 
69698 79698 
96987 96984 97907 06287 
69872 69846 62874 09172 
98723 38743 91722 91023 
87236 87430 82216 10236 
72368 82668 02366 
23682 83482 26680 23666 
36821 34824 66801 38221 
68211 68017 38221 
82114 82454 83414 82994 82216 62414 
21149 24143 20649 
11499 12459 
49955 09965 48975 40925 
99556 99652 94526 
95565 97585 
55653 25253 54553 
56537 52535 55337 
65374 62874 
53743 38743 
37439 87430 
74394 74301 74834 
43834 13874 74834 61834 
38348 38743 48346 18341 35248 
83482 83466 85492 83414 81882 06482 
34824 74834 34064 64826 
48245 48346 48266 11245 48975 58545 
82454 83414 82994 12459 62414 85455 
24540 34140 24593 24143 28740 
45401 45261 41407 
54013 54553 
40138 40648 45938 40528 
01387 06287 
13874 62874 
38743 28740 
87430 87405 
30102 59102 
01025 91023 
10251 16241 10236 
02515 20515 82525 52535 
25157 05159 25253 25352 
51570 51591 
57099 57969 
70996 75796 
09965 00945 
99652 09452 91602 
96520 94526 99420 
65205 05285 
52051 52856 
05159 09259 
51591 01791 92591 
15914 17911 25910 
59147 59102 
79698 70628 
96984 64984 
69846 64826 49848 
98461 98486 
74834 61834 75854 
48346 18341 48266 
83466 83414 23406 23666 
34668 34064 82668 36668 
46685 26680 56885 
66854 61834 66801 75854 62874 68850 
68549 58545 88509 
85492 85455 85091 
20094 20234 22064 
00945 40925 
09452 06482 09172 09259 
94526 64826 
45261 48266 
52618 82668 
26183 26680 24143 
61834 62874 
18341 16241 
83414 62414 
34140 24143 
41407 41432 
14078 14328 16028 
88299 88509 
99420 99790 
94202 91602 
42023 91023 
20234 10236 
02340 97340 02366 
23406 73409 23666 
34064 22064 34092 
40648 70628 40528 20649 49848 
06482 76282 06287 06498 
64826 62825 
82668 87628 85688 36668 
80179 89979 
01791 33791 
17911 37916 
79112 79160 09172 59102 
91124 21624 91722 91023 
11245 16241 
12459 52489 
24593 24143 24897 54553 
45938 45533 
59382 59102 
93822 91722 
82216 72206 
22162 28762 22064 
62414 62874 
14328 16028 
43287 06287 
32876 62874 52856 
28762 28740 28568 
87628 70628 85688 
76282 06287 
62825 62874 
52535 58545 
24897 28997 
48975 40925 
85455 87405 
79160 79070 
91602 91722 
70628 40528 
06287 05285 
74052 34092 
40528 40925 
09172 59102 
91722 91023 
63109 73409 
31097 34092 
<------------Next-300-Signals------------>
81559 91579 41554 
15596 95696 15790 15544 
55969 56969 91969 
59697 63697 69691 19690 59157 
96972 36978 96917 96903 
69728 69783 67228 89128 
97288 67228 91283 
72889 72284 78839 
28899 28919 78839 88399 
88990 88399 83994 
99077 50077 
90771 90041 00771 
07718 07719 01318 07178 
77181 77194 
71818 11808 01318 71788 
18181 18086 13180 18051 
81180 13180 
11808 31805 51308 
18086 18051 13086 
80867 87667 30860 40807 80717 
08674 68274 08609 08071 
86747 82745 80717 
67476 27456 37076 
74763 74567 70764 40763 54703 
47636 07633 47037 
76369 73339 56969 76331 70379 
63697 69691 
36978 72978 
69783 69033 63483 29783 
97830 90330 92430 91930 12830 67810 97837 
78304 19304 28306 78100 78377 
83045 28045 82745 93044 83068 
30456 80458 27456 33956 30448 
04568 04587 74567 
45688 45671 85618 
56885 56715 54485 56186 
68854 68274 61864 
85482 65452 
54828 54526 
48280 22280 
82804 22802 
28045 28028 
80458 30448 86408 
04587 74567 04489 
45876 45671 44856 
66759 06859 
67590 67150 68595 67810 
75900 71500 78100 
59004 19304 
90041 30341 93044 94641 
00412 03419 30712 00322 
04126 07125 54526 
41268 45267 
12682 52672 
26827 26722 
45671 43071 
67150 69170 67810 
71500 78100 
15007 35067 
50077 50678 
00771 03791 06781 08071 
07719 03419 37919 
77194 79193 
94113 64103 
41137 41034 41547 47037 
13712 30712 13202 
37123 07125 
71237 71253 
12370 15470 12830 
23707 24307 28407 
37076 84076 
70764 40763 
07641 07633 06541 94641 
76410 46414 
64103 54703 64141 
41034 33034 41924 47037 41554 
10347 30341 
03475 03419 
47574 41554 
57495 54485 99495 
74952 94252 94955 
49526 54526 42528 49556 
95267 45267 35067 95563 
52673 52672 50678 
26733 26722 29783 
67333 69033 07633 63313 
73339 76331 70379 78839 
33395 53365 33525 
33956 33654 
39569 39949 
56969 91969 
69691 19690 
96917 96903 
17021 18051 
70219 80289 20259 70379 
02191 02891 02591 03791 52891 
21914 28919 41924 25915 28912 
19146 89196 19243 
91465 91969 41415 41415 99495 
14653 14154 14155 
65322 65452 00322 
53222 13202 53352 03220 83272 
32228 67228 32025 42528 32201 32729 
22280 72284 22840 25289 
22802 22840 52502 
28028 25028 
80289 20259 25289 50283 
02891 02591 03791 52891 02835 
28919 25915 37919 28912 
89196 79193 89128 
91969 91579 91930 
19690 15790 18640 
69033 59533 
90330 92430 91930 95335 
03303 63313 
33034 33654 33132 93044 
30341 30448 
03419 04489 
34192 33132 34832 
41924 41554 
92430 91930 12830 
24307 28407 28306 
43071 08071 
30712 80717 
07125 07178 
71253 91283 
12533 12830 59533 
25336 28306 95335 
53365 53352 
33654 90654 
36545 06541 33525 
65452 65414 
45267 35067 
52672 52502 50678 
22840 12830 
28407 28306 
63313 63483 
33132 34832 
13202 83272 
32025 33525 32729 
20259 25289 
02591 06541 03791 52891 
25915 28912 
15790 15470 
06541 06781 
65414 46414 
54141 94641 64141 
41415 46414 41415 
14154 14155 
41547 41554 
47037 97837 
70379 78377 
03791 06781 
37919 39949 
30448 55448 
04489 54485 
44894 44856 
48942 28912 
89425 89128 99495 
94252 94955 
91283 50283 
12830 02835 
28306 28350 
01318 51308 
13180 13086 
18051 08071 
80513 80717 
51308 56348 
86094 83994 
14155 94955 
41554 49556 
55448 56348 
44856 49556 
48327 78377 
<------------Next-300-Signals------------>
28384 14384 16384 
83840 43848 63841 73540 
38401 38481 38412 31701 35400 
84018 84818 94028 
40184 48187 40004 40282 
18460 18740 
46011 96021 
60112 69412 20212 86112 62712 60214 
01128 02122 61121 
11282 41202 40282 11215 
12827 17727 12021 02824 12407 
28270 28245 24070 28510 
82704 67704 
27049 77041 
70497 70127 70414 
04975 24995 74875 
49753 49954 49143 48753 49323 
97534 93634 87537 
75349 75372 
53494 33694 53174 51094 
34943 36941 
49438 91438 
94385 14384 82385 
43852 43848 23859 
38526 38596 
85263 05163 27263 15763 85960 
52633 51639 72636 57638 
26331 26361 
63310 63400 63613 03390 
33102 33902 
31024 31414 39020 51094 
10249 10339 00279 51249 10944 
02499 02795 12493 
24995 24932 
95491 45591 93091 
54914 55916 
49143 59163 49323 09443 
91438 91638 94430 
14384 16384 44304 
43848 63841 63808 43045 
38481 41481 38412 38082 
84818 14815 
48187 48159 
87405 82455 
74051 77041 00051 
40516 47216 40666 00516 
05163 59163 05167 15763 
51639 91638 51672 51249 57638 
16393 12293 16384 12093 12493 
63936 61336 
39363 59163 49323 
93634 33694 91638 93231 
36340 36941 36770 76380 
63400 35400 63808 
34000 39020 24070 35400 54000 
40004 40709 40005 44304 
00044 00051 10944 
00440 04140 09443 
04406 09306 41406 
44063 14066 
40631 40666 
06314 16384 
63141 63841 61121 
31414 38412 70414 
14148 04140 14228 
41481 41406 
14815 11215 74875 
48159 48753 
81591 45591 
15917 55916 95317 55317 
59177 59163 53174 53170 59327 
91772 51672 91512 
17727 17487 16729 
77272 75372 
13369 10339 19309 
33694 39294 32294 
36941 30911 
69412 29402 38412 62712 
94120 94028 84120 04140 94430 
41202 40282 41209 41406 
12021 12093 96021 
20212 40282 60214 
02122 02824 07322 72162 02002 02142 
21229 41209 73229 21627 01279 51249 21422 
12293 12093 32294 12795 12493 
22939 20930 22946 24932 
93929 73229 
39294 32294 
92940 22946 
29402 29469 59602 21422 
94028 96021 14228 
40282 42285 
82455 12155 72355 82385 
24559 21554 23553 23859 
45591 35531 
55916 55456 55317 
91638 95668 57638 
16384 76380 
63841 65861 63808 
38412 38082 
84120 04140 
41209 40709 01279 41406 51249 
12093 12795 12493 
20930 24932 31930 
09306 19309 
93065 93091 43045 
30658 30459 
06586 00516 
58611 78671 
86112 86710 
12155 72355 12795 
21554 23553 
54560 54000 
45600 35400 
56009 54000 
00969 00279 
09693 09443 04593 
86710 36770 
67103 67704 
10339 19309 
39020 68020 
90203 80200 
02030 02002 
20307 20547 20027 
22946 27956 
20547 20027 
05472 75372 
54721 53723 
72162 02142 
21627 20027 21422 
62712 62542 
27124 25424 15124 
71240 73540 51249 
12407 17487 42477 12493 
24070 24773 54000 
40709 40005 
07095 02795 
09531 35531 
95317 55317 
53174 53170 
31748 31701 
37235 47735 
72355 77354 72915 82385 
23553 23193 23859 
55317 51367 59327 
70127 20027 
01279 00279 51249 
12795 02795 12493 
27956 27951 
79566 79513 
56680 76380 
66802 63808 
02002 02142 
27951 29151 22851 
51367 59327 
70414 60214 
04140 02142 
66254 60214 
62542 02142 
25424 15124 21422 
54247 51249 
40005 43045 
51672 59602 
29151 22851 
24932 45932 
49323 59327 
93231 93091 
93091 96021 
82385 42285 
23859 22851 
<------------Next-300-Signals------------>
23462 23455 23342 93662 23782 
34628 36623 
62858 62578 62448 
28582 23782 
85829 81929 
58295 58675 57275 34295 81295 82295 
82950 42956 12959 22959 
29505 27555 29565 29594 29599 
95056 95658 
50564 57064 
05644 45614 02744 09624 70644 95944 65624 06624 
56448 56145 96248 56588 06449 59445 56247 62448 
64484 62489 64492 24489 
44842 44702 44972 44894 
42234 41834 52334 
22345 22625 25145 23342 
23455 27555 77455 
34557 47557 74550 
45578 62578 45958 75570 45509 95278 47778 
55784 25789 55706 52786 
57840 57892 
78403 78723 03403 
84039 80539 80439 34036 
40399 40360 
39997 39287 
99974 95944 
99741 99561 89441 
97418 89418 95618 94410 
74183 94180 44103 
41834 41801 11804 44894 41037 
18342 23342 18043 10372 
83427 33429 83047 
34279 34295 04289 
42793 42890 
27930 59930 
79301 99303 
93012 93662 93034 
22625 26695 
26257 86757 66237 56247 
62578 67572 62373 72378 62477 62448 
25789 23782 24489 
57892 55092 07872 77822 
78925 78723 78229 
89251 09231 89441 
92514 44514 92311 
25145 45146 
51456 51463 
14561 14631 99561 
45614 44514 95618 65624 
56145 59445 56180 56247 
61459 62489 
14595 34295 18515 
45958 42956 95658 85158 65928 43928 
59586 56588 51581 59286 52786 
95867 92867 
58675 88475 38775 28671 
86757 80157 84755 87757 86718 
67572 77572 67182 07872 
75727 75727 78723 
57275 57276 
72755 84755 72761 77455 
27555 29565 47557 77455 27865 
75550 75570 74550 
55501 55706 51581 45509 
55011 55092 
50111 40101 
01110 01018 31180 
11100 31180 11804 
11007 11804 41037 
10071 10372 
00714 02744 00884 04774 
07149 27449 06449 
71494 74497 
14944 95944 48944 
49447 59445 89441 
94470 24670 94180 94451 92870 94410 
44702 44972 46709 44103 
47027 47557 41037 
70274 70644 
02744 04774 
27449 06449 24489 
74497 64492 
44972 44921 
49724 09624 
97246 96248 57276 
72467 72761 92867 62477 
24670 28671 24777 
46709 45509 
67096 60066 
70962 00662 
09624 65624 06624 
96248 95278 56247 66244 
62489 62477 62448 24489 
24894 29594 44894 
48941 44921 48944 
89418 86718 89078 89441 
94180 56180 31180 94410 
41801 40101 01851 61805 11804 
18015 18515 18053 18043 
80157 87757 85158 
15752 15812 
57523 50923 
23523 23383 
35233 18233 
52334 82338 
23342 23383 23782 
34295 81295 82295 
42956 43936 12959 29956 22959 
29565 29594 99561 39065 27865 29599 
95658 85158 95618 90659 95278 
56588 51581 56180 
58819 58129 16819 
88194 68192 
81943 81929 
19439 19299 80439 
94393 04392 95993 99303 
43936 23736 53906 43928 
39366 37360 39065 
93662 00662 
36623 06624 
66237 87237 56247 66244 
62373 72378 62477 
23736 23782 
37360 30340 40360 
73600 03600 
36008 36006 
60088 60066 
88475 38775 
84755 87757 
47557 87757 
75570 77572 74550 
55706 53906 52786 
64492 68192 04392 
44921 43928 
92138 82338 
21387 23383 
87757 87237 
77572 07872 77782 77822 
75727 78723 
57276 59286 
61340 30340 
13401 03403 
34010 34036 94410 
40101 44103 
51581 31681 
15812 16819 
58129 78229 
81295 82295 
12959 22959 
29594 29599 
95944 95993 48944 
59445 89441 
94451 94410 
44514 44894 
63168 23118 
31681 31180 
68192 67182 
19299 29599 
92995 82295 95993 
29956 22959 
95618 95278 
56180 31180 
61805 11804 
18053 18233 18043 
80539 80439 
05390 04392 
06592 04392 86562 
65928 43928 65624 
59286 39287 52786 
92867 92870 
67182 77782 
71823 78723 77822 
18233 18043 
82338 72378 
23383 23782 
38304 28704 
83047 87042 
30477 62477 
04774 24777 
47745 47778 
92870 42890 
28704 28907 
04289 24489 
42890 44894 
07872 77822 
78723 78229 
23782 77782 
37826 77822 
78266 78656 78229 
65624 06624 
56247 66244 
62477 62448 
<------------Next-300-Signals------------>
16717 70717 16015 46737 
67170 07070 07171 17100 67376 
71702 70707 71710 71005 70722 
70289 75279 50489 
02892 62812 04898 
28928 28126 58628 
89286 89446 86281 
28615 27915 37615 
86150 80950 76155 
61509 48509 61559 
15093 64093 15583 85095 15594 05293 
50937 40938 55837 50954 50467 52935 
09376 09389 58376 67376 94376 
93764 83767 73761 43769 
37640 37678 01640 13640 37615 37698 18640 
76409 76949 16406 36407 86405 
64093 64064 64077 64052 44193 
40938 40278 41939 
38907 36407 
90707 00777 07707 
07070 03000 05010 07775 77072 
70707 00777 07707 70722 
07071 01011 07775 77072 
70717 00777 70722 
07171 07775 
17100 15160 12140 23100 18110 51100 
71005 31003 81105 11007 
10057 10030 11050 11007 10077 
00574 00777 04474 
05746 02786 85046 44746 
57466 97966 50467 47469 
74669 64659 79663 74691 
46697 04697 46597 46737 
66975 46975 65979 
69752 69759 64052 
97527 97598 
75279 65979 
52791 59796 
27915 37615 
79151 60151 76155 
91516 01517 95016 
15160 15176 12140 18110 45110 13660 
51601 50101 51100 
60151 50101 
01517 01011 
51769 43769 
17694 15594 37698 
76949 76986 
69495 69135 
94958 93558 
49584 59484 48984 
95844 99824 94842 89844 
58447 50467 60447 98441 
84479 04474 84419 
44796 59796 44746 44193 
47962 97966 47469 
79628 79663 78638 58628 
96281 86231 46181 96771 86281 
62812 62310 61811 63842 62813 
28126 28136 
81261 86231 86461 86281 81366 
26121 46181 26591 
61214 61811 
12140 18110 13640 18640 
14089 14809 
08944 48984 
89446 85046 89844 
94467 50467 
44674 04673 04474 
46742 46737 44746 
67423 67713 
74235 44835 72265 
42358 48351 41558 42488 
35898 33998 37698 35048 04898 
58980 48984 
89803 89844 
98034 33034 
80344 30344 86384 89844 
03448 03441 01148 23248 
34483 34415 32485 
44835 44155 24885 
48351 48850 
35104 36604 
51046 85046 51186 
10469 50467 47469 50489 
04697 04673 74691 04898 
46975 46913 
69759 64659 77759 61559 
97598 77596 37698 93558 
75983 15583 75967 76986 
59838 55837 
98386 58376 94376 
83862 83767 63842 55862 
38623 18723 38424 98603 58628 
86231 86461 87232 86033 86281 
62310 62813 
23100 51100 
31003 11007 
10030 11050 10077 
00300 01330 
03000 05010 
30001 10501 50101 
00013 05010 01011 
00133 60333 
01330 01640 03331 91350 
13303 13504 
03441 03331 98441 
34415 32485 37615 84419 
44155 76155 44193 
41558 61559 93558 
15583 15594 35586 
55837 55862 
58376 67376 94376 
83767 73761 43769 
37678 37615 37698 
76786 02786 76986 
67864 64064 27863 69860 11864 
78646 40646 78638 18640 
86461 06465 82451 86405 86281 
64618 64659 65918 
46181 86281 
61811 01011 62813 
18110 10114 45110 18640 
81105 51100 86405 
11050 11480 11007 91350 
10501 09501 17551 13504 
05010 95016 45110 
50101 50164 51100 
10114 50164 
01148 01640 
48095 85095 
80950 50954 
09501 09540 
95016 85046 
50164 50954 50467 
01640 13640 09540 18640 
16406 36407 86405 
64064 64077 64052 66044 
40646 44746 
06465 86405 
64659 22659 61559 64052 
46597 26591 46737 
65979 65918 
96633 98603 86033 
66339 60333 
33998 37698 
99824 89844 
98245 98441 
24511 26591 75511 
45110 55118 
51100 51186 
10077 64077 
00777 40770 07707 
07775 07707 
77596 77136 
59677 59187 
67713 62813 
77136 28136 
71364 72324 11864 81366 
13640 18640 13660 
36407 86405 36604 
64077 54027 64052 
40770 40278 
65918 55948 55118 
59187 59484 51186 
91872 94842 
23248 84248 
32485 42488 
24850 24885 48850 
48509 88504 48429 40529 
85095 85046 
78638 58628 
86384 86281 
63842 94842 
38424 48429 
84248 84294 
88504 13504 
85046 35048 
50467 60447 50489 
04673 04474 
67376 94376 
73761 43769 
37615 37698 
15594 13504 
55948 55118 35048 
59484 50489 
48429 40529 47469 
42943 46913 
43769 47469 
18640 13660 
<------------Next-300-Signals------------>
