09066 49577 75029 02939 29398 39878 98786 87862 62001 20019 00191 01911 19115 15096 50966 09664 49283 34326 43269 69927 99276 92760 76011 01119 19211 47019 01912 19121 44071 07112 12059 05949 59492 49254 55091 09159 59722 89558 81446 14464 44646 46467 77073 07332 22087 08730 73047 04756 47564 64196 41968 19686 96863 11015 01534 23986 39864 98646 86464 46446 64460 46079 07975 79754 97546 75469 69106 91064 06440 44015 01536 15364 64546 45469 69003 90039 00396 03962 39620 62042 04283 28316 83167 67033 03374 89873 15296 52960 29603 96030 03022 02284 45022 02233 23326 33267 52926 29260 26032 03216 32165 48246 82464 28416 84161 22031 03131 11028 02872 22018 01838 73083 08397 83976 39769 69707
90669 55749 95775 75029 50293 02939 93987 98786 87862 78620 20019 00191 91150 11509 50966 09664 96649 92834 43269 32699 99276 92760 27601 60111 01119 92114 47019 70191 91215 40711 12059 20594 05949 94925 92543 75509 50915 09159 91597 97222 21889 95588 14464 44646 46467 64677 70733 20873 30475 47564 75641 56419 41968 19686 96863 68634 10153 44239 39864 98646 86464 64644 64460 44607 46079 60797 97546 75469 54691 91064 10644 40153 15364 53645 45469 54690 90039 00396 03962 39620 96204 20428 83167 31670 70337 37489 98732 31529 52960 29603 96030 60302 30228 50223 33267 32677 82529 29260 92603 60321 32165 21658 82464 24641 84161 41617 20313 10287 20183 30839 39769 97697
06695 57495 95775 50293 02939 29398 78620 86200 00191 01911 19115 15096 09664 96649 66492 32699 26992 27601 76011 01119 11192 70191 01912 91215 07112 11205 20594 05949 59492 94925 54375 43755 55091 50915 09159 91597 18895 88955 44646 46467 64677 46770 07332 08730 30475 04756 75641 56419 64196 19686 96863 68634 86347 11015 01534 42398 98646 86464 64644 46446 44607 46079 60797 07975 54691 46910 10644 06440 44015 01536 53645 36454 54690 46900 00396 03962 39620 96204 04283 31670 16703 03374 74898 32315 15296 29603 96030 03022 02284 22845 02233 32677 26772 72825 25292 92603 26032 03216 32165 21658 16585 24641 46418 41617 16178 61785 03131 02872 01838 08397 97697 76970
66955 74957 95775 57750 02939 93987 86200 62001 01911 19115 91150 50966 96649 66492 64928 26992 69927 76011 60111 11921 01912 91215 12154 11205 12059 05949 94925 49254 54375 43755 37550 50915 09159 15972 18895 88955 89558 46467 64677 46770 67707 30475 04756 56419 64196 41968 96863 68634 86347 63471 11015 10153 23986 86464 64644 46446 64460 46079 60797 07975 79754 46910 69106 06440 64401 44015 40153 53645 36454 64546 46900 69003 03962 96204 62042 16703 67033 48987 32315 23152 52960 96030 60302 22845 28450 26772 67728 72825 28252 52926 26032 60321 32165 21658 16585 65854 46418 64182 16178 61785 17854 83976 76970 69707
69557 49577 57750 77502 29398 93987 39878 62001 19115 91150 11509 09664 66492 64928 49283 69927 99276 60111 19211 21147 19121 12154 21544 54407 12059 20594 59492 49254 92543 25437 43755 37550 75509 09159 91597 59722 88955 89558 95588 46467 64677 67707 22087 73047 04756 47564 64196 19686 68634 86347 63471 10153 01534 39864 64644 64460 44607 60797 79754 97546 69106 64401 40153 01536 36454 64546 69003 39620 62042 83167 67033 70337 48987 89873 23152 31529 29603 60302 28450 84502 33267 32677 67728 28252 82529 29260 60321 21658 16585 65854 58548 64182 41617 61785 17854 78542 10287 14417 44177 08397 39769 97697 69707
95574 95775 77502 75029 93987 39878 98786 91150 11509 15096 09664 96649 92834 99276 92760 92114 11470 91215 12154 21544 15440 44071 20594 05949 94925 49254 92543 25437 54375 37550 75509 55091 91597 15972 97222 89558 95588 55881 58814 88144 14464 64677 46770 77073 20873 87304 30475 47564 75641 96863 68634 63471 01534 15343 34334 43344 33444 39864 98646 86464 64644 46079 07975 79754 97546 75469 91064 10644 01536 15364 36454 64546 45469 90039 96204 31670 03374 89873 98732 31529 15296 96030 02284 84502 45022 32677 26772 82529 25292 92603 16585 65854 58548 85482 54824 82464 18284 16178 17854 78542 85422 02872 18384 38414 84144 44177 41773 83976 97697 76970
55749 57750 75029 50293 02939 98786 20019 11509 15096 50966 96649 28343 43269 32699 92760 01119 21147 14701 47019 21544 15440 54407 40711 12059 05949 59492 92543 25437 54375 43755 75509 55091 50915 09159 15972 59722 21889 95588 55881 58814 88144 81446 44646 46770 67707 70733 08730 73047 04756 75641 56419 86347 34711 15343 53433 43344 33444 34442 44239 98646 64644 46446 46079 60797 79754 97546 75469 54691 10644 06440 15364 53645 64546 45469 54690 90039 62042 16703 33748 37489 98732 31529 15296 52960 22845 45022 50223 26772 67728 82529 25292 52926 65854 58548 85482 54824 48246 24641 82841 61785 78542 85422 54220 28722 83841 84144 41441 41773 17730 30839 39769 69707
57495 77502 50293 29398 87862 00191 19115 15096 50966 66492 83432 32699 26992 27601 11192 11470 47019 70191 91215 15440 54407 07112 11205 20594 59492 94925 25437 54375 43755 37550 55091 50915 91597 59722 97222 18895 88955 55881 58814 81446 14464 46467 67707 77073 07332 87304 30475 47564 56419 64196 63471 47110 11015 53433 33444 34442 44423 42398 86464 46446 64460 60797 07975 97546 75469 54691 06440 64401 44015 53645 36454 45469 54690 00396 20428 67033 37489 74898 87323 32315 15296 52960 22845 28450 50223 67728 77282 72825 25292 52926 32165 16585 58548 85482 54824 82464 46418 28416 61785 17854 85422 54220 87220 38414 41441 14417 17730 77308 08397 97697
74957 75029 02939 93987 78620 01911 91150 50966 64928 34326 26992 69927 76011 11921 21147 14701 70191 01912 12154 54407 44071 71120 12059 05949 94925 49254 25437 54375 43755 37550 75509 50915 09159 91597 15972 72221 88955 89558 14464 44646 46467 64677 67707 77073 70733 73322 22087 73047 04756 75641 64196 41968 86347 34711 71101 10153 34334 34442 44423 44239 23986 64644 64460 44607 60797 07975 79754 75469 54691 46910 64401 44015 40153 36454 64546 54690 46900 03962 04283 83167 70337 74898 48987 73231 23152 52960 28450 84502 33267 32677 77282 72825 28252 52926 21658 65854 54824 24641 64182 84161 41617 17854 78542 54220 10287 72201 84144 14417 44177 77308 73083 08397 83976 97697 76970 69707
49577 29398 93987 39878 19115 11509 09664 49283 43269 69927 99276 19211 21147 11470 47019 19121 21544 54407 44071 40711 20594 59492 49254 92543 25437 54375 43755 37550 75509 09159 91597 15972 59722 89558 95588 44646 46467 64677 46770 67707 77073 22087 20873 73047 30475 47564 41968 19686 86347 63471 47110 01534 43344 44423 44239 42398 39864 46446 44607 46079 60797 07975 79754 97546 46910 69106 44015 40153 01536 64546 45469 46900 69003 39620 42831 83167 31670 70337 03374 48987 89873 31529 29603 84502 45022 33267 32677 26772 82529 29260 16585 58548 48246 46418 41828 41617 16178 78542 42203 10287 02872 41441 14417 44177 41773 08397 83976 39769 97697 76970 69707
95775 93987 39878 98786 19115 91150 15096 96649 92834 99276 92760 92114 11470 14701 91215 15440 44071 40711 11205 05949 94925 92543 25437 54375 43755 75509 55091 50915 91597 15972 59722 97222 18895 88955 95588 55881 64677 46770 67707 77073 70733 20873 08730 30475 04756 75641 96863 63471 34711 11015 15343 98646 46079 60797 07975 79754 97546 75469 91064 44015 15364 53645 45469 90039 96204 31670 16703 03374 33748 89873 98732 32315 15296 96030 22845 45022 32677 26772 67728 72825 25292 92603 32165 16585 65854 85482 16178 61785 85422 02872 28722 44177 41773 17730 83976 39769 97697 76970 69707
57750 98786 87862 78620 86200 91150 50966 92760 27601 11470 14701 47019 12154 15440 54407 40711 07112 71120 12059 59492 49254 54375 43755 37550 55091 50915 09159 59722 97222 88955 89558 55881 58814 46770 67707 77073 70733 07332 33220 08730 87304 04756 47564 56419 34711 47110 10153 53433 64460 60797 07975 79754 97546 54691 46910 06440 40153 53645 36454 54690 46900 39620 31670 16703 67033 33748 37489 98732 87323 23152 52960 96030 28450 50223 26772 67728 77282 28252 52926 29260 21658 65854 58548 54824 61785 17854 54220 13110 28722 87220 41773 17730 77308 39769 97697 76970 69707
77502 87862 78620 86200 62001 11509 66492 83432 26992 27601 76011 11192 14701 47019 70191 01912 21544 54407 07112 71120 11205 20594 59492 92543 37550 75509 91597 15972 59722 97222 72221 89558 95588 67707 77073 70733 07332 73322 32208 87304 73047 47564 75641 47110 71101 01534 34442 44607 07975 79754 97546 75469 69106 64401 01536 64546 46900 69003 03962 96204 62042 16703 67033 70337 37489 74898 98732 87323 73231 23152 31529 29603 60302 03022 84502 45022 22332 26772 67728 77282 72825 28252 82529 25292 92603 26032 16585 58548 85482 64182 17854 78542 85422 42203 31102 02872 28722 87220 72201 17730 77308 73083 97697 76970 69707
75029 78620 62001 20019 11509 15096 96649 64928 34326 43269 32699 69927 76011 01119 11921 47019 70191 19121 15440 44071 71120 12059 05949 94925 25437 75509 55091 09159 15972 59722 97222 72221 21889 95588 55881 77073 70733 73322 33220 22087 73047 75641 56419 71101 11015 15343 44423 44239 46079 79754 75469 91064 44015 15364 45469 69003 90039 39620 62042 20428 67033 70337 37489 74898 87323 73231 31529 15296 96030 03022 30228 45022 50223 23326 67728 77282 72825 82529 25292 52926 26032 60321 65854 85482 54824 41828 78542 85422 54220 22031 11028 28722 87220 72201 22018 77308 73083 30839 39769 76970
50293 86200 20019 00191 15096 50966 66492 49283 28343 43269 32699 26992 99276 60111 11192 19211 70191 91215 54407 40711 11205 20594 59492 49254 92543 54375 55091 50915 91597 59722 97222 72221 22218 18895 55881 58814 77073 70733 33220 32208 20873 30475 56419 64196 96863 10153 15343 53433 44423 44239 42398 60797 54691 10644 40153 53645 54690 69003 90039 00396 96204 20428 04283 16703 67033 70337 74898 89873 87323 73231 15296 52960 29603 60302 30228 02284 50223 02233 33267 77282 28252 25292 52926 29260 92603 60321 03216 58548 54824 48246 18284 54220 42203 20313 10287 87220 72201 20183 41773 73083 30839 08397 97697
02939 62001 20019 00191 01911 11509 50966 09664 96649 64928 92834 83432 43269 32699 26992 69927 92760 01119 11921 92114 47019 01912 12154 07112 12059 05949 94925 92543 25437 75509 50915 09159 15972 72221 22218 22188 21889 88955 70733 07332 32208 22087 08730 04756 56419 41968 68634 01534 53433 34334 44239 42398 23986 46079 07975 75469 46910 06440 01536 45469 46900 90039 00396 03962 62042 04283 42831 67033 70337 03374 37489 48987 98732 73231 32315 31529 52960 96030 03022 02284 22845 02233 22332 32677 72825 82529 52926 92603 26032 03216 32165 82464 82841 42203 22031 03131 02872 72201 22018 01838 17730 30839 08397 83976 39769 76970
29398 20019 00191 19115 15096 09664 66492 64928 49283 28343 34326 32699 26992 69927 99276 27601 11192 19211 21147 70191 19121 21544 20594 59492 49254 25437 54375 55091 09159 91597 59722 22218 22188 21889 18895 89558 95588 07332 73322 32208 22087 20873 87304 64196 41968 19686 86347 15343 34334 43344 42398 23986 39864 60797 79754 54691 69106 15364 54690 69003 00396 39620 20428 28316 70337 03374 33748 74898 89873 87323 32315 23152 15296 29603 60302 30228 22845 28450 22332 23326 26772 67728 28252 25292 29260 26032 60321 21658 58548 24641 46418 41828 28416 16178 22031 20313 31311 11028 28722 22018 20183 01838 18384 77308 08397 39769 97697 69707
93987 01911 91150 50966 96649 64928 49283 92834 83432 43269 26992 69927 99276 92760 11921 92114 21147 01912 91215 54407 05949 94925 92543 25437 43755 50915 91597 15972 97222 22188 21889 88955 95588 55881 46467 64677 67707 73322 33220 22087 73047 41968 19686 96863 86347 63471 53433 43344 33444 23986 98646 44607 60797 07975 97546 46910 91064 53645 46900 90039 03962 96204 04283 83167 70337 03374 33748 37489 48987 98732 73231 23152 52960 96030 03022 02284 23326 33267 32677 77282 52926 92603 03216 16585 85482 64182 18284 41617 61785 03131 13110 10287 20183 18384 83841 14417 44177 73083 08397 83976 97697 76970 69707
39878 19115 09664 64928 49283 92834 34326 32699 69927 99276 19211 11470 19121 44071 59492 49254 54375 37550 09159 15972 59722 22218 22188 21889 18895 89558 95588 55881 58814 64677 46770 77073 33220 32208 20873 30475 41968 19686 96863 63471 34711 34334 33444 34442 42398 39864 46079 07975 79754 69106 36454 69003 39620 20428 42831 31670 03374 33748 37489 74898 89873 32315 31529 29603 30228 22845 33267 32677 26772 67728 72825 29260 32165 21658 65854 58548 54824 46418 41828 82841 16178 17854 31311 31102 11028 02872 22018 01838 83841 38414 44177 41773 77308 30839 83976 39769 76970 69707
98786 91150 15096 50966 96649 49283 92834 28343 34326 99276 92760 92114 14701 91215 40711 94925 92543 43755 91597 59722 97222 22188 21889 18895 88955 95588 55881 58814 88144 81446 44646 46770 67707 70733 22087 08730 04756 64196 19686 96863 68634 34711 23986 98646 46446 60797 79754 97546 69106 91064 01536 64546 90039 00396 96204 04283 28316 16703 33748 37489 48987 98732 15296 96030 02284 28450 23326 26772 67728 77282 28252 52926 92603 03216 16585 58548 85482 48246 64182 18284 28416 61785 78542 10287 28722 20183 18384 38414 41773 17730 73083 08397 83976 39769 97697 69707
87862 50966 09664 66492 92834 83432 43269 26992 92760 27601 11192 47019 01912 07112 59492 37550 15972 59722 97222 21889 18895 88955 89558 55881 58814 88144 81446 14464 46467 67707 77073 07332 73322 20873 87304 47564 41968 96863 86347 47110 34442 39864 86464 64460 07975 97546 75469 91064 15364 45469 03962 62042 42831 83167 67033 37489 74898 89873 98732 87323 23152 52960 60302 03022 22845 84502 45022 22332 33267 26772 67728 77282 72825 28252 82529 25292 29260 26032 32165 65854 85482 54824 82464 64182 41828 82841 84161 17854 78542 85422 31102 02872 28722 87220 01838 83841 84144 17730 77308 30839 83976 39769 97697
78620 91150 09664 96649 64928 28343 34326 32699 69927 92760 27601 76011 11921 11470 70191 19121 15440 71120 94925 37550 75509 59722 97222 72221 18895 88955 58814 88144 44646 64677 46770 77073 70733 73322 33220 08730 73047 75641 19686 68634 47110 71101 44423 98646 64644 64460 44607 79754 75469 54691 46910 10644 06440 53645 54690 46900 39620 20428 28316 31670 70337 74898 48987 98732 87323 73231 31529 52960 29603 96030 03022 30228 28450 45022 50223 23326 32677 67728 77282 72825 28252 82529 52926 29260 92603 60321 21658 58548 54824 48246 24641 41828 18284 28416 41617 78542 85422 54220 13110 11028 28722 87220 72201 18384 38414 17730 77308 73083 08397 97697 76970
86200 91150 11509 96649 66492 49283 83432 43269 26992 99276 92760 27601 76011 19211 11470 14701 91215 15440 54407 71120 11205 49254 37550 75509 97222 72221 22218 88955 89558 88144 81446 46467 46770 67707 33220 32208 08730 87304 56419 96863 86347 47110 71101 44239 86464 46446 64460 44607 46079 46910 69106 06440 64401 36454 54690 46900 69003 39620 96204 04283 83167 31670 16703 89873 87323 73231 15296 52960 29603 96030 60302 30228 02284 28450 84502 50223 02233 33267 26772 77282 28252 82529 25292 29260 92603 26032 03216 16585 85482 48246 82464 46418 18284 82841 84161 16178 85422 54220 42203 13110 31102 10287 87220 72201 83841 84144 17730 77308 83976 76970 69707
62001 11509 15096 66492 64928 92834 32699 69927 92760 27601 76011 60111 11921 19211 92114 14701 47019 70191 19121 12154 54407 44071 40711 11205 12059 92543 75509 55091 72221 22218 22188 55881 64677 67707 77073 32208 22087 87304 73047 75641 64196 68634 63471 34711 71101 11015 42398 64644 64460 44607 46079 60797 54691 69106 91064 64401 44015 64546 46900 69003 90039 96204 62042 42831 16703 67033 73231 32315 52960 29603 96030 60302 03022 02284 22845 84502 45022 02233 22332 32677 67728 72825 82529 52926 92603 26032 60321 32165 65854 82464 24641 64182 82841 84161 61785 42203 22031 03131 31311 31102 11028 02872 72201 22018 83841 41441 77308 73083 69707
20019 11509 15096 50966 96649 28343 43269 32699 26992 27601 76011 60111 01119 19211 92114 21147 47019 70191 01912 91215 21544 44071 40711 07112 12059 20594 05949 25437 75509 55091 50915 09159 22218 22188 21889 58814 77073 70733 22087 20873 73047 30475 56419 34711 47110 11015 10153 44239 23986 46079 60797 75469 46910 91064 10644 44015 40153 45469 69003 90039 00396 62042 20428 28316 67033 70337 37489 32315 23152 31529 29603 96030 60302 03022 30228 22845 28450 45022 50223 22332 23326 26772 28252 82529 25292 29260 26032 60321 03216 21658 24641 46418 28416 41617 22031 20313 31311 13110 11028 10287 28722 22018 20183 38414 14417 73083 30839 39769
00191 15096 50966 09664 66492 32699 26992 27601 76011 60111 01119 11192 11921 19211 92114 21147 14701 70191 01912 19121 12154 44071 40711 07112 71120 20594 05949 59492 55091 50915 09159 91597 72221 22188 18895 55881 88144 70733 07332 20873 08730 30475 04756 75641 64196 63471 34711 47110 71101 10153 01534 42398 60797 07975 54691 69106 10644 06440 64401 40153 01536 54690 90039 00396 03962 20428 04283 42831 83167 70337 03374 74898 73231 23152 15296 60302 03022 30228 02284 50223 02233 25292 60321 03216 32165 24641 64182 82841 84161 16178 22031 20313 03131 31311 13110 31102 10287 02872 72201 20183 01838 83841 84144 41441 44177 30839 08397 97697
01911 50966 09664 64928 26992 69927 27601 76011 60111 01119 11192 11921 19211 92114 21147 11470 14701 47019 70191 01912 19121 91215 21544 44071 40711 07112 71120 11205 05949 94925 55091 50915 09159 91597 15972 72221 22218 21889 88955 55881 58814 81446 07332 08730 04756 75641 56419 41968 63471 34711 47110 71101 11015 01534 23986 07975 54691 46910 91064 06440 64401 44015 01536 46900 00396 03962 04283 42831 28316 31670 03374 48987 73231 32315 31529 52960 03022 02284 02233 52926 60321 03216 21658 24641 46418 41828 82841 28416 84161 41617 61785 22031 20313 03131 31311 13110 31102 11028 02872 72201 22018 01838 83841 38414 41441 14417 41773 08397 83976 76970
19115 09664 49283 69927 99276 76011 60111 01119 11192 11921 19211 92114 21147 11470 14701 47019 70191 01912 19121 91215 12154 15440 40711 07112 71120 11205 12059 59492 94925 49254 54375 43755 50915 09159 15972 59722 22218 22188 18895 88955 89558 58814 88144 14464 30475 56419 64196 19686 34711 47110 71101 11015 10153 15343 39864 07975 79754 46910 69106 10644 44015 40153 15364 53645 69003 39620 28316 83167 16703 89873 32315 23152 15296 29603 22845 72825 29260 03216 32165 16585 46418 64182 18284 28416 84161 41617 16178 61785 17854 20313 03131 31311 13110 31102 11028 10287 22018 20183 18384 38414 84144 14417 44177 17730 39769 69707
91150 96649 92834 99276 92760 60111 01119 11192 11921 92114 21147 11470 70191 01912 19121 91215 12154 21544 15440 07112 71120 11205 12059 94925 49254 92543 43755 37550 09159 91597 97222 22188 21889 88955 89558 95588 88144 81446 46770 33220 08730 04756 64196 41968 96863 47110 71101 11015 10153 01534 98646 64460 79754 97546 46910 69106 91064 06440 40153 01536 36454 54690 46900 90039 39620 96204 83167 31670 98732 23152 31529 52960 96030 28450 28252 29260 92603 32165 21658 65854 64182 41828 84161 41617 16178 61785 17854 54220 03131 31311 13110 31102 11028 87220 20183 01838 84144 41441 44177 41773 17730 97697 76970
11509 43269 32699 27601 01119 11192 11921 19211 21147 11470 14701 47019 01912 19121 91215 12154 21544 15440 54407 71120 11205 12059 20594 05949 92543 37550 75509 09159 91597 15972 21889 18895 89558 95588 81446 14464 67707 32208 87304 47564 56419 41968 19686 71101 11015 10153 01534 15343 44239 44607 46079 97546 75469 69106 91064 10644 64401 01536 15364 64546 45469 46900 69003 90039 96204 31670 16703 37489 31529 15296 29603 60302 84502 82529 92603 21658 16585 58548 41828 18284 41617 16178 61785 17854 78542 42203 31311 13110 31102 11028 10287 72201 01838 18384 41441 14417 41773 17730 77308 30839 39769 69707
15096 34326 32699 26992 99276 76011 11192 11921 19211 11470 14701 47019 70191 19121 12154 15440 44071 11205 12059 20594 05949 59492 25437 75509 55091 91597 15972 18895 95588 55881 81446 14464 44646 77073 22087 73047 04756 75641 64196 19686 11015 10153 15343 42398 23986 98646 46446 46079 60797 97546 75469 54691 69106 91064 10644 44015 01536 15364 64546 45469 54690 69003 90039 00396 62042 28316 16703 67033 74898 15296 96030 03022 45022 23326 25292 52926 26032 03216 16585 65854 85482 48246 18284 28416 16178 17854 85422 22031 13110 11028 10287 22018 18384 14417 17730 73083 08397 83976 97697
50966 34326 43269 26992 69927 99276 92760 60111 11921 70191 01912 54407 40711 20594 05949 59492 94925 54375 55091 50915 15972 59722 88955 55881 58814 81446 14464 44646 46467 70733 20873 30475 04756 47564 56419 64196 41968 19686 96863 10153 53433 23986 39864 98646 86464 46446 64460 60797 07975 97546 75469 54691 46910 69106 91064 10644 40153 01536 15364 53645 64546 45469 54690 46900 90039 00396 03962 20428 28316 83167 70337 48987 15296 52960 60302 30228 50223 23326 33267 52926 29260 60321 03216 32165 58548 54824 48246 82464 28416 84161 54220 20313 10287 20183 30839 83976 39769 76970
09664 92834 43269 32699 69927 99276 92760 27601 01119 19211 92114 01912 19121 12154 21544 07112 20594 05949 59492 49254 09159 59722 89558 58814 88144 14464 44646 46467 64677 07332 08730 87304 04756 47564 75641 41968 19686 96863 68634 01534 34334 43344 33444 39864 98646 86464 64644 64460 44607 07975 79754 75469 54691 69106 91064 10644 06440 01536 15364 53645 36454 45469 54690 69003 00396 03962 39620 96204 04283 83167 31670 03374 89873 52960 29603 03022 02284 02233 33267 32677 29260 92603 03216 32165 21658 65854 54824 82464 24641 18284 84161 41617 17854 03131 02872 01838 18384 38414 84144 08397 39769 97697 69707
96649 28343 43269 32699 26992 99276 92760 27601 76011 01119 92114 21147 47019 91215 21544 15440 12059 05949 94925 92543 75509 09159 91597 97222 21889 95588 88144 81446 44646 46467 64677 46770 73047 75641 56419 19686 96863 68634 86347 15343 43344 33444 34442 44239 98646 86464 64644 46446 44607 46079 97546 75469 54691 46910 91064 10644 06440 53645 36454 64546 45469 54690 46900 90039 39620 96204 62042 31670 16703 33748 37489 98732 31529 29603 96030 22845 32677 26772 82529 92603 26032 21658 16585 58548 48246 24641 46418 82841 41617 16178 78542 83841 84144 41441 30839 39769 97697 76970
66492 83432 32699 26992 69927 76011 60111 11192 11470 70191 01912 15440 54407 07112 20594 59492 25437 55091 91597 15972 59722 97222 18895 81446 14464 46467 64677 46770 67707 07332 73322 30475 56419 64196 96863 68634 86347 63471 53433 33444 34442 44423 42398 86464 64644 46446 64460 46079 60797 75469 54691 46910 69106 06440 64401 36454 64546 45469 54690 46900 69003 00396 03962 96204 62042 20428 16703 67033 37489 74898 98732 23152 15296 96030 60302 03022 28450 84502 45022 22332 26772 67728 77282 28252 25292 26032 60321 16585 65854 85482 82464 46418 64182 28416 16178 61785 78542 85422 31102 02872 28722 38414 41441 14417 08397 97697 76970 69707
64928 34326 26992 69927 60111 11921 14701 01912 19121 54407 44071 71120 05949 94925 54375 50915 15972 59722 97222 72221 22218 22188 88955 89558 95588 14464 44646 64677 67707 73322 33220 32208 04756 64196 41968 68634 63471 34711 34334 34442 44423 44239 42398 23986 64644 64460 44607 60797 07975 54691 46910 69106 64401 44015 64546 54690 46900 69003 03962 39620 62042 20428 04283 67033 33748 74898 48987 87323 31529 52960 60302 03022 30228 84502 45022 50223 23326 67728 72825 82529 52926 60321 21658 65854 58548 54824 24641 46418 64182 41828 84161 16178 61785 85422 54220 11028 28722 87220 22018 01838 84144 14417 44177 77308 83976 76970 69707
49283 43269 69927 99276 19211 47019 19121 91215 44071 40711 11205 59492 49254 92543 43755 09159 59722 97222 72221 22218 22188 21889 89558 95588 55881 44646 46467 46770 77073 70733 33220 32208 22087 20873 47564 41968 19686 96863 47110 10153 15343 53433 43344 44423 44239 42398 23986 39864 46446 44607 46079 79754 46910 69106 44015 40153 45469 46900 69003 39620 96204 04283 42831 16703 67033 37489 48987 89873 87323 73231 15296 29603 30228 02284 45022 50223 02233 33267 77282 28252 25292 29260 92603 03216 16585 85482 48246 46418 64182 41828 18284 41617 61785 54220 42203 20313 10287 87220 72201 20183 18384 41441 44177 41773 73083 39769 69707
92834 32699 99276 92760 92114 91215 12154 21544 12059 20594 94925 49254 92543 25437 91597 97222 72221 22218 22188 21889 18895 95588 55881 58814 88144 14464 70733 07332 32208 22087 20873 08730 87304 47564 96863 68634 01534 53433 34334 43344 33444 44239 42398 39864 98646 86464 64644 79754 97546 91064 10644 01536 15364 36454 90039 96204 62042 42831 67033 70337 03374 74898 89873 98732 73231 32315 52960 96030 02284 22845 02233 22332 32677 72825 82529 52926 92603 26032 32165 65854 54824 82464 41828 18284 82841 17854 42203 22031 03131 02872 72201 22018 01838 18384 83841 38414 84144 17730 30839 97697
28343 26992 27601 21147 21544 15440 20594 05949 92543 25437 54375 22218 22188 21889 18895 88955 58814 88144 81446 44646 77073 70733 07332 73322 22087 20873 08730 87304 73047 75641 96863 68634 86347 10153 15343 53433 34334 43344 33444 34442 44423 42398 23986 98646 64644 46446 97546 10644 06440 40153 15364 53645 64546 69003 00396 62042 20428 04283 28316 16703 67033 70337 03374 33748 48987 89873 98732 87323 32315 23152 29603 60302 22845 28450 50223 02233 22332 23326 26772 28252 25292 29260 92603 26032 60321 21658 58548 48246 24641 18284 82841 28416 78542 42203 22031 20313 31311 28722 22018 20183 18384 83841 38414 84144 41441 41773 77308 73083 08397
83432 11192 11470 01912 15440 54407 07112 59492 25437 43755 15972 59722 97222 88955 89558 88144 81446 14464 46467 70733 07332 73322 33220 08730 87304 73047 30475 56419 68634 86347 63471 01534 53433 34334 43344 33444 34442 44423 44239 23986 86464 46446 64460 75469 06440 64401 01536 53645 36454 45469 90039 03962 62042 20428 42831 83167 67033 70337 03374 33748 37489 89873 98732 87323 73231 23152 96030 60302 03022 28450 84502 45022 02233 22332 23326 33267 26772 77282 28252 82529 25292 26032 03216 85482 82464 46418 64182 82841 28416 84161 78542 85422 22031 03131 13110 31102 02872 28722 87220 01838 83841 38414 84144 41441 14417 17730 73083 30839 83976
34326 99276 11921 14701 19121 54407 44071 71120 94925 54375 37550 59722 97222 72221 81446 14464 44646 64677 07332 73322 33220 32208 87304 30475 04756 64196 19686 86347 34711 15343 34334 43344 33444 34442 44423 44239 42398 23986 39864 98646 64644 46446 64460 44607 97546 54691 69106 64401 44015 01536 15364 36454 64546 54690 00396 39620 20428 04283 28316 31670 70337 03374 33748 37489 74898 87323 32315 31529 15296 60302 03022 30228 84502 45022 50223 22332 23326 33267 32677 67728 72825 82529 52926 60321 03216 32165 54824 48246 24641 64182 41828 28416 84161 85422 54220 20313 31311 31102 11028 28722 87220 18384 38414 84144 14417 44177 77308 30839 08397 83976 39769
43269 92760 01119 19211 47019 91215 44071 40711 11205 12059 05949 49254 43755 75509 09159 97222 72221 22218 21889 14464 44646 46467 46770 73322 33220 32208 73047 47564 56419 41968 96863 63471 47110 53433 43344 33444 44423 44239 42398 23986 39864 86464 46446 64460 44607 46079 75469 46910 91064 44015 40153 15364 53645 45469 46900 90039 03962 96204 04283 42831 83167 03374 33748 37489 48987 73231 23152 31529 15296 52960 03022 30228 02284 45022 50223 02233 23326 33267 77282 28252 82529 25292 29260 03216 32165 48246 82464 46418 41828 18284 84161 41617 54220 42203 03131 13110 10287 87220 72201 83841 41441 44177 41773 73083 30839 83976 39769
32699 27601 01119 11192 92114 47019 70191 12154 12059 20594 05949 59492 92543 37550 75509 55091 09159 91597 72221 22218 22188 21889 18895 44646 64677 33220 32208 22087 30475 75641 56419 64196 19686 68634 34711 34334 33444 34442 44239 42398 39864 98646 64644 44607 46079 60797 75469 54691 10644 53645 36454 45469 54690 90039 00396 39620 62042 42831 31670 33748 37489 74898 32315 31529 15296 52960 29603 30228 02284 22845 02233 22332 33267 32677 72825 82529 25292 52926 92603 32165 21658 82464 24641 82841 41617 42203 22031 31311 31102 02872 72201 22018 38414 30839 08397 39769 97697
26992 76011 11192 11921 21147 70191 01912 21544 07112 20594 05949 59492 94925 25437 55091 50915 91597 15972 59722 97222 22218 22188 21889 18895 88955 46467 46770 07332 73322 22087 20873 56419 64196 41968 96863 86347 34442 42398 23986 86464 46446 46079 60797 07975 54691 46910 06440 36454 54690 46900 00396 03962 96204 62042 20428 28316 16703 74898 48987 98732 23152 15296 52960 29603 96030 60302 03022 22845 28450 84502 45022 22332 23326 26772 77282 28252 25292 52926 29260 26032 21658 16585 85482 24641 46418 64182 28416 16178 78542 85422 22031 20313 31102 02872 28722 22018 20183 08397 83976 97697 76970
69927 60111 11921 19211 21147 01912 19121 54407 71120 05949 59492 94925 49254 25437 50915 09159 91597 15972 59722 97222 72221 88955 89558 46467 64677 67707 73322 33220 22087 73047 64196 41968 19686 68634 86347 63471 44423 23986 39864 64644 64460 44607 60797 07975 79754 46910 69106 64401 64546 46900 69003 03962 39620 62042 20428 83167 67033 70337 48987 89873 87323 31529 52960 29603 60302 03022 30228 45022 50223 23326 33267 32677 67728 72825 82529 52926 29260 60321 65854 54824 64182 41828 41617 61785 85422 54220 11028 10287 28722 87220 14417 44177 08397 83976 39769 97697 76970 69707
99276 19211 92114 11470 19121 91215 44071 11205 59492 94925 49254 92543 54375 09159 91597 15972 59722 97222 72221 22218 89558 95588 81446 44646 64677 46770 77073 33220 32208 20873 30475 04756 64196 19686 96863 63471 44239 23986 39864 98646 46446 46079 07975 79754 97546 69106 91064 01536 64546 69003 90039 00396 39620 96204 04283 28316 31670 03374 89873 98732 73231 15296 29603 96030 30228 02284 50223 02233 23326 33267 32677 26772 77282 28252 25292 52926 29260 92603 03216 48246 18284 28416 16178 54220 42203 10287 02872 87220 72201 44177 41773 83976 39769 97697 76970 69707
92760 92114 11470 14701 91215 12154 15440 40711 71120 12059 94925 92543 43755 37550 91597 59722 97222 72221 22218 22188 95588 14464 46467 46770 67707 70733 33220 32208 22087 08730 04756 47564 41968 96863 34711 47110 42398 39864 98646 86464 64460 60797 79754 97546 75469 46910 91064 06440 15364 45469 54690 46900 90039 03962 39620 96204 62042 42831 83167 31670 16703 33748 98732 32315 52960 96030 02284 22845 28450 02233 22332 33267 32677 26772 67728 72825 82529 52926 29260 92603 32165 82464 82841 84161 61785 54220 42203 22031 13110 02872 28722 87220 72201 22018 41773 17730 39769 97697 76970 69707
27601 11921 19211 21147 14701 47019 70191 19121 21544 54407 44071 40711 07112 11205 20594 25437 37550 75509 55091 97222 72221 22218 22188 21889 55881 44646 64677 67707 77073 07332 32208 22087 20873 87304 47564 75641 19686 68634 63471 34711 47110 71101 23986 98646 64644 44607 07975 97546 54691 69106 10644 64401 53645 54690 46900 69003 39620 96204 20428 42831 28316 31670 16703 67033 37489 87323 73231 23152 29603 60302 22845 28450 84502 22332 23326 32677 26772 67728 77282 28252 25292 29260 92603 26032 60321 21658 24641 82841 28416 84161 41617 17854 42203 22031 20313 03131 31311 31102 28722 87220 72201 22018 20183 83841 41441 17730 77308 97697 69707
76011 19211 92114 14701 47019 70191 01912 19121 91215 44071 40711 07112 71120 12059 75509 55091 50915 72221 22218 55881 58814 46467 46770 77073 70733 73322 22087 73047 75641 56419 96863 86347 63471 34711 47110 71101 11015 86464 46446 46079 79754 75469 54691 46910 91064 06440 64401 44015 36454 46900 69003 90039 96204 62042 42831 28316 16703 67033 70337 74898 73231 32315 96030 03022 45022 26772 77282 72825 26032 60321 03216 16585 24641 46418 82841 28416 84161 41617 16178 78542 22031 20313 03131 31311 13110 11028 72201 22018 83841 38414 41441 14417 77308 73083 76970
60111 92114 21147 14701 47019 70191 01912 19121 91215 12154 44071 40711 07112 71120 20594 55091 50915 09159 72221 22218 22188 55881 58814 88144 64677 67707 70733 20873 30475 75641 56419 64196 68634 63471 34711 47110 71101 11015 10153 64644 64460 60797 54691 46910 69106 10644 64401 44015 40153 64546 69003 90039 00396 62042 20428 42831 28316 83167 67033 70337 73231 32315 23152 60302 30228 50223 67728 60321 03216 32165 65854 24641 46418 64182 82841 28416 84161 41617 16178 61785 22031 20313 03131 31311 13110 31102 10287 72201 22018 20183 83841 38414 84144 41441 14417 44177 30839 69707
01119 21147 11470 47019 70191 01912 19121 91215 12154 21544 40711 07112 71120 11205 12059 05949 75509 50915 09159 91597 22218 22188 21889 58814 88144 81446 07332 08730 04756 56419 64196 41968 34711 47110 71101 11015 10153 01534 44239 46079 07975 75469 46910 69106 91064 06440 44015 40153 01536 45469 90039 00396 03962 04283 28316 83167 31670 03374 37489 32315 23152 31529 03022 02284 02233 82529 03216 32165 21658 46418 64182 41828 28416 84161 41617 16178 61785 20313 03131 31311 13110 31102 11028 02872 22018 20183 01838 38414 84144 41441 14417 44177 41773 30839 08397 39769
11192 11470 14701 70191 01912 19121 91215 12154 21544 15440 07112 71120 11205 12059 20594 59492 55091 09159 91597 15972 59722 97222 22188 21889 18895 88144 81446 14464 07332 73322 64196 41968 19686 47110 71101 11015 10153 01534 15343 34442 42398 60797 54691 69106 91064 10644 40153 01536 15364 54690 00396 03962 62042 83167 31670 16703 74898 98732 23152 31529 15296 60302 03022 84502 45022 22332 26772 77282 28252 25292 26032 32165 21658 16585 85482 64182 41828 18284 84161 41617 16178 61785 17854 78542 85422 03131 31311 13110 31102 11028 10287 02872 28722 20183 01838 18384 84144 41441 14417 44177 41773 17730 08397 97697
11921 14701 70191 01912 19121 91215 12154 21544 15440 44071 40711 71120 11205 12059 05949 94925 55091 50915 91597 15972 59722 97222 72221 21889 18895 88955 55881 81446 14464 73322 33220 75641 41968 19686 63471 34711 71101 11015 10153 01534 15343 44423 23986 07975 54691 46910 91064 10644 64401 01536 15364 46900 03962 39620 20428 42831 31670 16703 48987 87323 73231 31529 15296 52960 03022 30228 45022 50223 23326 67728 72825 82529 52926 60321 21658 16585 54824 24641 41828 18284 82841 84161 41617 16178 61785 17854 85422 54220 22031 03131 31311 13110 31102 11028 10287 28722 87220 72201 01838 18384 83841 41441 14417 41773 17730 83976 76970
19211 47019 70191 01912 19121 91215 12154 15440 44071 40711 07112 11205 12059 59492 49254 55091 50915 09159 15972 59722 97222 72221 22218 18895 89558 55881 58814 14464 33220 32208 75641 56419 19686 63471 34711 47110 71101 11015 10153 15343 44239 39864 79754 54691 46910 69106 10644 64401 44015 15364 69003 39620 96204 04283 42831 28316 16703 89873 73231 32315 15296 29603 30228 02284 50223 02233 33267 77282 28252 25292 29260 60321 03216 16585 48246 24641 46418 18284 82841 28416 84161 41617 16178 17854 54220 42203 22031 20313 03131 31311 13110 11028 10287 87220 72201 22018 18384 83841 38414 41441 14417 17730 39769 69707
92114 70191 01912 19121 91215 12154 21544 40711 07112 71120 12059 20594 94925 49254 92543 50915 09159 91597 97222 72221 22218 22188 95588 58814 88144 14464 32208 22087 87304 47564 56419 64196 96863 68634 34711 47110 71101 11015 10153 01534 34334 43344 33444 42398 39864 98646 86464 64644 79754 97546 46910 69106 91064 10644 44015 40153 15364 36454 90039 96204 62042 42831 28316 83167 03374 98732 32315 23152 52960 96030 02284 22845 02233 22332 32677 72825 82529 52926 92603 03216 32165 65854 54824 82464 46418 64182 18284 82841 28416 84161 41617 16178 17854 42203 22031 20313 03131 31311 13110 31102 02872 72201 22018 20183 18384 38414 84144 14417 44177 97697
21147 01912 19121 91215 12154 21544 15440 54407 07112 71120 11205 20594 05949 92543 25437 09159 91597 22218 22188 21889 88144 81446 44646 46467 64677 67707 22087 20873 73047 75641 64196 41968 86347 47110 71101 11015 10153 01534 15343 43344 33444 34442 23986 98646 64644 46446 44607 60797 97546 69106 91064 10644 06440 40153 01536 53645 64546 62042 20428 28316 83167 31670 70337 33748 48987 23152 31529 29603 22845 28450 22332 23326 33267 32677 26772 28252 25292 29260 26032 32165 21658 58548 48246 24641 64182 41828 82841 28416 84161 41617 16178 61785 78542 22031 20313 03131 31311 13110 31102 11028 10287 28722 22018 20183 01838 83841 84144 41441 14417 44177 41773 08397 97697 69707
11470 19121 91215 12154 21544 15440 54407 44071 71120 11205 12059 59492 25437 54375 37550 91597 15972 21889 18895 81446 14464 46467 64677 46770 77073 33220 20873 08730 30475 56419 41968 19686 63471 47110 71101 11015 10153 01534 15343 53433 33444 34442 44423 86464 46446 64460 46079 07975 75469 46910 91064 10644 06440 64401 01536 15364 36454 45469 54690 46900 39620 20428 31670 16703 03374 37489 89873 31529 15296 52960 96030 28450 32677 26772 29260 21658 16585 85482 82464 46418 41828 18284 28416 41617 16178 61785 17854 85422 54220 31311 13110 31102 11028 10287 02872 87220 01838 18384 38414 41441 14417 44177 41773 17730 83976 76970
14701 12154 15440 54407 44071 40711 11205 12059 94925 54375 43755 75509 55091 15972 59722 72221 18895 55881 14464 44646 64677 46770 67707 70733 32208 08730 87304 04756 75641 64196 19686 63471 34711 71101 11015 10153 15343 34334 34442 44423 44239 64644 64460 44607 60797 79754 54691 69106 10644 64401 44015 15364 64546 54690 46900 69003 96204 04283 42831 16703 33748 74898 98732 73231 15296 29603 60302 84502 26772 67728 92603 60321 16585 54824 24641 64182 18284 82841 84161 16178 61785 17854 54220 42203 22031 03131 31311 13110 31102 11028 10287 28722 72201 18384 83841 84144 41441 14417 44177 41773 17730 77308 39769 69707
47019 44071 40711 07112 12059 05949 49254 43755 37550 75509 55091 50915 09159 97222 22218 21889 58814 44646 46467 46770 67707 77073 07332 22087 87304 73047 47564 56419 41968 34711 47110 11015 43344 44423 44239 42398 46446 44607 46079 07975 97546 75469 46910 91064 44015 40153 45469 46900 69003 90039 62042 42831 28316 67033 37489 48987 87323 32315 31529 96030 03022 45022 67728 77282 82529 26032 03216 48246 46418 41828 28416 41617 17854 42203 22031 20313 31311 13110 11028 87220 22018 38414 41441 14417 44177 41773 17730 77308 73083 30839 39769 97697
70191 44071 40711 07112 71120 20594 59492 75509 55091 50915 09159 91597 72221 22188 18895 55881 88144 77073 70733 73322 20873 73047 30475 75641 64196 63471 34711 47110 71101 10153 42398 60797 79754 75469 54691 69106 10644 64401 40153 54690 90039 00396 20428 42831 83167 70337 74898 73231 23152 15296 60302 30228 50223 77282 72825 25292 60321 32165 24641 64182 82841 84161 16178 78542 22031 20313 03131 31311 13110 31102 10287 72201 20183 83841 84144 41441 44177 77308 73083 30839 08397 97697 76970
01912 40711 07112 71120 11205 05949 59492 94925 50915 09159 91597 15972 59722 97222 22218 21889 88955 58814 81446 07332 73322 08730 04756 56419 41968 34711 47110 71101 11015 01534 34442 23986 07975 46910 91064 06440 44015 01536 46900 00396 03962 62042 04283 28316 31670 03374 48987 98732 32315 23152 31529 52960 60302 03022 02284 84502 45022 02233 22332 26772 77282 28252 25292 52926 26032 03216 21658 85482 46418 64182 41828 28416 41617 61785 78542 85422 20313 03131 31311 13110 31102 11028 02872 28722 22018 01838 38414 41441 14417 41773 08397 83976 76970
19121 44071 40711 07112 71120 11205 12059 59492 94925 49254 55091 09159 15972 59722 97222 72221 22188 18895 89558 55881 88144 14464 73322 33220 75641 64196 19686 63471 34711 47110 71101 11015 10153 15343 44423 39864 79754 54691 69106 10644 64401 40153 15364 69003 39620 20428 42831 83167 16703 89873 87323 73231 23152 31529 15296 29603 03022 30228 45022 50223 23326 67728 72825 82529 52926 29260 60321 32165 16585 54824 24641 64182 41828 18284 82841 84161 16178 17854 85422 54220 22031 03131 31311 13110 31102 11028 10287 28722 87220 72201 20183 18384 83841 84144 41441 14417 44177 17730 39769 69707
91215 40711 07112 71120 11205 94925 49254 92543 54375 43755 50915 91597 97222 72221 22218 21889 18895 88955 95588 58814 81446 33220 32208 30475 56419 41968 96863 34711 47110 71101 11015 01534 44239 98646 07975 97546 46910 91064 44015 01536 53645 90039 96204 04283 28316 31670 98732 73231 32315 31529 15296 96030 30228 02284 22845 50223 02233 33267 77282 72825 28252 25292 29260 92603 03216 32165 21658 16585 48246 46418 41828 18284 28416 41617 61785 54220 42203 20313 31311 13110 31102 11028 10287 87220 72201 22018 01838 38414 41441 14417 41773 97697
12154 07112 71120 11205 12059 20594 49254 92543 43755 37550 09159 15972 72221 22218 22188 18895 88955 89558 58814 88144 14464 32208 22087 87304 04756 47564 64196 19686 68634 47110 71101 11015 10153 01534 15343 34334 43344 33444 42398 39864 86464 64644 79754 69106 91064 10644 40153 15364 36454 96204 62042 42831 83167 16703 03374 32315 23152 15296 52960 02284 22845 28450 02233 22332 32677 72825 28252 82529 52926 92603 32165 21658 16585 65854 54824 82464 64182 18284 82841 84161 16178 17854 42203 22031 03131 13110 31102 11028 10287 02872 72201 22018 20183 18384 38414 84144 14417 44177 17730
21544 71120 11205 20594 05949 49254 92543 25437 37550 75509 91597 22218 22188 21889 89558 95588 58814 88144 81446 14464 44646 22087 20873 87304 73047 47564 75641 41968 68634 86347 71101 11015 01534 15343 34334 43344 33444 34442 23986 39864 98646 86464 64644 46446 79754 97546 91064 10644 06440 01536 15364 53645 36454 64546 96204 62042 20428 28316 31670 03374 33748 23152 31529 29603 02284 22845 28450 84502 22332 23326 26772 28252 82529 25292 29260 26032 21658 16585 65854 58548 54824 48246 82464 24641 41828 18284 82841 28416 41617 61785 17854 78542 22031 20313 31311 31102 11028 28722 22018 20183 01838 18384 83841 38414 84144 41441 41773
15440 71120 11205 12059 05949 59492 92543 25437 37550 75509 55091 15972 18895 95588 55881 88144 81446 14464 44646 46467 46770 33220 08730 73047 30475 75641 56419 19686 86347 63471 47110 11015 10153 15343 53433 43344 33444 34442 44423 98646 86464 64644 46446 64460 97546 75469 46910 10644 06440 64401 15364 53645 36454 64546 45469 54690 46900 39620 62042 20428 31670 16703 33748 37489 15296 52960 96030 22845 28450 45022 25292 29260 16585 65854 58548 85482 48246 82464 24641 46418 18284 82841 28416 16178 17854 78542 85422 54220 13110 11028 10287 87220 18384 83841 38414 84144 41441 14417 17730 76970
54407 11205 59492 94925 25437 54375 75509 55091 50915 91597 59722 55881 58814 81446 14464 44646 46467 64677 67707 32208 22087 87304 73047 30475 04756 56419 64196 86347 63471 34711 71101 53433 34334 33444 34442 44423 44239 86464 64644 46446 64460 44607 60797 75469 54691 69106 06440 64401 44015 53645 36454 64546 45469 54690 46900 69003 96204 20428 04283 83167 16703 70337 37489 74898 48987 52960 29603 60302 28450 84502 50223 33267 32677 52926 92603 58548 85482 54824 82464 24641 46418 64182 28416 84161 41617 85422 54220 42203 31102 10287 72201 38414 84144 41441 14417 44177 77308 08397 97697 69707
44071 12059 94925 49254 54375 43755 55091 15972 72221 55881 14464 44646 46467 64677 46770 77073 22087 20873 73047 30475 04756 47564 75641 64196 41968 63471 34711 47110 71101 11015 34334 43344 34442 44423 44239 42398 64644 46446 64460 44607 46079 07975 54691 46910 91064 64401 44015 40153 64546 45469 54690 46900 69003 90039 62042 04283 42831 31670 67033 03374 74898 48987 89873 73231 96030 03022 84502 45022 32677 26772 26032 60321 54824 48246 24641 46418 64182 41828 82841 84161 41617 16178 54220 42203 22031 03131 31311 11028 02872 72201 22018 83841 84144 41441 14417 44177 41773 73083 83976 76970
40711 20594 49254 43755 55091 50915 59722 72221 22218 55881 58814 44646 46467 46770 67707 70733 20873 08730 30475 04756 47564 75641 56419 41968 63471 34711 47110 71101 11015 10153 43344 44423 44239 42398 46446 44607 46079 60797 79754 54691 46910 10644 64401 44015 40153 45469 46900 90039 00396 20428 42831 28316 16703 70337 33748 48987 98732 73231 32315 60302 30228 45022 50223 26772 67728 60321 03216 48246 24641 46418 41828 82841 28416 84161 41617 61785 42203 22031 20313 03131 31311 13110 10287 28722 72201 22018 20183 83841 38414 41441 14417 44177 41773 17730 30839 39769 69707
07112 05949 59492 37550 50915 09159 15972 59722 97222 22218 22188 58814 88144 67707 77073 07332 73322 08730 87304 04756 47564 56419 64196 34711 47110 71101 11015 10153 01534 34442 07975 97546 46910 69106 06440 44015 40153 01536 00396 03962 62042 04283 28316 83167 67033 03374 37489 98732 87323 32315 23152 60302 03022 02284 84502 45022 02233 22332 26772 67728 77282 28252 25292 26032 03216 32165 85482 46418 64182 28416 84161 41617 16178 17854 78542 85422 20313 03131 31311 13110 31102 02872 28722 87220 22018 20183 01838 38414 84144 14417 44177 17730 77308 08397 97697
71120 94925 37550 75509 09159 91597 59722 97222 72221 22188 21889 88144 81446 46770 77073 70733 73322 33220 08730 73047 75641 64196 41968 47110 71101 11015 10153 01534 44423 64460 79754 75469 46910 69106 91064 06440 40153 01536 54690 46900 39620 20428 83167 31670 70337 74898 87323 73231 23152 31529 52960 96030 03022 30228 28450 45022 50223 23326 67728 77282 72825 82529 52926 29260 60321 32165 21658 54824 64182 41828 84161 41617 16178 61785 78542 85422 54220 03131 31311 13110 31102 11028 28722 87220 72201 20183 01838 84144 41441 44177 41773 17730 77308 73083 76970
11205 94925 49254 54375 43755 75509 50915 91597 15972 97222 72221 22218 21889 18895 88955 81446 14464 67707 33220 32208 87304 30475 41968 19686 71101 11015 10153 01534 15343 44239 44607 07975 69106 91064 10644 64401 44015 01536 15364 53645 46900 69003 96204 04283 31670 16703 73231 32315 31529 15296 29603 60302 30228 02284 22845 84502 50223 02233 33267 77282 72825 28252 25292 29260 92603 03216 32165 21658 16585 48246 41828 18284 41617 16178 61785 17854 54220 42203 31311 13110 31102 11028 10287 87220 72201 01838 18384 41441 14417 41773 17730 77308 69707
12059 49254 92543 43755 37550 75509 55091 09159 15972 72221 22218 22188 21889 18895 88955 89558 14464 77073 32208 22087 73047 04756 56419 19686 11015 10153 15343 44239 42398 46079 79754 75469 91064 10644 44015 40153 15364 36454 45469 69003 90039 62042 42831 16703 67033 37489 32315 23152 31529 15296 52960 96030 03022 02284 22845 28450 45022 02233 22332 32677 72825 28252 82529 52926 92603 26032 32165 21658 16585 65854 82464 18284 82841 16178 17854 42203 22031 13110 11028 10287 02872 72201 22018 18384 14417 17730 73083 30839 39769
20594 92543 25437 37550 75509 55091 50915 91597 22218 22188 21889 18895 89558 95588 58814 88144 14464 70733 22087 20873 87304 30475 47564 64196 68634 10153 01534 34334 43344 33444 42398 23986 39864 86464 64644 60797 79754 97546 54691 91064 10644 40153 01536 15364 36454 64546 54690 90039 00396 96204 20428 28316 70337 03374 74898 23152 31529 15296 29603 60302 30228 02284 22845 28450 84502 50223 22332 23326 26772 28252 82529 25292 29260 26032 60321 21658 16585 65854 58548 54824 82464 24641 18284 28416 17854 78542 22031 20313 10287 28722 22018 20183 18384 38414 84144 30839 08397 97697
05949 25437 75509 55091 50915 09159 15972 21889 88955 95588 55881 88144 81446 44646 07332 08730 73047 04756 75641 56419 41968 86347 01534 15343 43344 33444 34442 44239 23986 98646 64644 46446 46079 07975 97546 75469 46910 10644 06440 01536 15364 53645 64546 45469 46900 90039 00396 03962 62042 04283 03374 33748 37489 48987 31529 15296 52960 03022 02284 22845 45022 02233 82529 25292 52926 03216 65854 58548 85482 48246 24641 82841 78542 85422 03131 02872 01838 83841 84144 41441 30839 08397 83976 39769 76970
59492 54375 55091 50915 09159 91597 15972 59722 97222 18895 89558 55881 58814 81446 14464 46467 07332 73322 30475 56419 64196 19686 63471 53433 33444 34442 44423 42398 39864 86464 46446 64460 60797 79754 75469 54691 69106 06440 64401 53645 36454 45469 54690 69003 00396 03962 39620 62042 20428 37489 74898 89873 98732 23152 15296 52960 29603 60302 03022 28450 84502 45022 50223 22332 26772 77282 28252 25292 52926 29260 26032 58548 85482 54824 82464 46418 64182 28416 78542 85422 54220 31102 02872 28722 38414 41441 14417 08397 39769 97697 69707
94925 43755 50915 91597 15972 59722 97222 72221 18895 88955 95588 14464 44646 64677 73322 33220 30475 04756 64196 41968 96863 34711 11015 34334 34442 44423 44239 23986 98646 64644 64460 44607 07975 97546 54691 46910 91064 64401 44015 53645 64546 54690 46900 90039 03962 39620 96204 20428 04283 74898 48987 98732 87323 32315 31529 52960 96030 03022 30228 22845 84502 45022 50223 23326 67728 72825 82529 52926 92603 60321 32165 16585 54824 24641 64182 41828 84161 61785 85422 54220 11028 28722 87220 84144 14417 44177 83976 97697 76970
49254 37550 09159 59722 97222 72221 22218 88955 89558 58814 88144 14464 44646 46467 46770 33220 32208 87304 04756 47564 41968 19686 68634 47110 10153 01534 34334 43344 33444 44423 44239 42398 39864 86464 64644 46446 44607 46079 79754 46910 69106 91064 10644 44015 40153 15364 36454 45469 46900 69003 39620 96204 04283 42831 03374 48987 89873 73231 23152 15296 29603 30228 02284 28450 45022 50223 02233 33267 77282 28252 25292 29260 03216 21658 65854 54824 48246 82464 46418 41828 18284 41617 17854 54220 42203 10287 87220 72201 18384 38414 84144 41441 44177 41773 39769 69707
92543 75509 91597 97222 72221 22218 22188 89558 95588 88144 81446 44646 77073 70733 32208 22087 20873 73047 47564 75641 96863 86347 10153 01534 15343 53433 43344 33444 34442 44423 42398 98646 64644 46446 97546 91064 10644 06440 40153 01536 53645 64546 69003 90039 96204 62042 04283 42831 16703 67033 33748 89873 98732 87323 32315 31529 52960 29603 96030 02284 22845 84502 50223 02233 22332 32677 72825 82529 52926 92603 32165 16585 58548 48246 82464 24641 82841 78542 42203 22031 20313 02872 72201 22018 20183 83841 84144 41441 41773 73083 97697
25437 55091 91597 15972 22218 22188 21889 95588 55881 81446 14464 46467 64677 67707 70733 07332 22087 20873 08730 73047 30475 75641 56419 68634 86347 63471 01534 15343 53433 34334 33444 34442 44423 44239 23986 86464 46446 64460 44607 60797 75469 06440 64401 01536 15364 36454 45469 90039 20428 42831 28316 83167 67033 70337 37489 48987 98732 73231 23152 15296 29603 96030 22845 28450 45022 02233 22332 23326 33267 32677 26772 28252 25292 29260 26032 21658 65854 85482 82464 24641 46418 28416 41617 85422 22031 20313 03131 10287 28722 22018 20183 01838 38414 41441 14417 44177 17730 30839 08397 97697 69707
54375 50915 15972 59722 18895 88955 55881 58814 14464 44646 64677 46770 77073 07332 73322 20873 87304 30475 04756 56419 64196 86347 63471 34711 11015 15343 53433 34334 43344 34442 44423 44239 42398 64644 64460 44607 46079 07975 54691 64401 44015 15364 53645 64546 54690 00396 04283 28316 31670 70337 03374 74898 89873 87323 32315 52960 60302 22845 84502 50223 22332 23326 32677 26772 72825 52926 60321 32165 16585 58548 54824 24641 64182 84161 16178 61785 54220 20313 31311 02872 18384 84144 14417 44177 41773 77308 08397 83976 76970
43755 09159 59722 18895 88955 89558 44646 46467 46770 67707 70733 73322 33220 08730 73047 30475 04756 47564 41968 63471 34711 47110 11015 10153 53433 43344 33444 44423 44239 42398 23986 46446 44607 46079 60797 07975 79754 46910 44015 40153 53645 36454 45469 46900 03962 42831 83167 16703 03374 33748 48987 98732 73231 32315 23152 03022 22845 28450 45022 23326 33267 26772 67728 72825 28252 03216 32165 21658 16585 65854 48246 46418 41828 41617 61785 17854 42203 03131 13110 28722 83841 41441 44177 41773 17730 73083 83976 39769 69707
37550 91597 97222 88955 89558 95588 46770 67707 77073 07332 33220 32208 08730 87304 30475 04756 47564 34711 47110 10153 01534 34334 33444 34442 39864 64460 07975 79754 97546 46910 06440 40153 01536 36454 64546 54690 46900 39620 31670 67033 33748 37489 87323 32315 23152 31529 52960 96030 30228 28450 84502 33267 32677 67728 77282 28252 82529 29260 32165 21658 16585 65854 58548 17854 78542 54220 31311 13110 31102 87220 38414 17730 77308 30839 39769 97697 76970
75509 15972 72221 21889 89558 95588 55881 67707 77073 70733 73322 32208 87304 73047 47564 75641 56419 71101 01534 15343 44239 44607 46079 79754 97546 75469 69106 64401 01536 15364 64546 45469 46900 69003 90039 96204 16703 70337 37489 74898 73231 31529 15296 29603 60302 84502 45022 77282 72825 82529 25292 92603 16585 65854 58548 85482 78542 85422 42203 31102 72201 77308 73083 30839 39769 76970 69707
55091 59722 72221 18895 95588 55881 58814 77073 22087 73047 75641 56419 64196 63471 34711 71101 11015 15343 53433 42398 46079 60797 75469 54691 91064 64401 44015 15364 53645 45469 54690 69003 90039 00396 62042 42831 67033 74898 73231 15296 52960 96030 03022 45022 50223 25292 52926 26032 60321 65854 58548 85482 54824 24641 82841 84161 85422 54220 22031 03131 31311 11028 72201 22018 83841 41441 73083 08397 97697
50915 22218 18895 88955 55881 58814 70733 20873 30475 56419 41968 34711 47110 11015 10153 53433 23986 60797 07975 54691 46910 10644 44015 40153 53645 54690 46900 90039 00396 03962 20428 28316 70337 48987 32315 52960 60302 30228 22845 50223 72825 52926 60321 03216 32165 16585 58548 54824 46418 28416 41617 61785 54220 20313 31311 13110 10287 22018 20183 38414 14417 30839 83976 76970
09159 22188 21889 88955 89558 88144 07332 08730 04756 56419 64196 19686 47110 71101 10153 01534 44239 39864 46079 07975 79754 75469 69106 06440 40153 01536 36454 45469 69003 90039 00396 03962 39620 04283 83167 03374 37489 89873 23152 31529 29603 03022 02284 28450 02233 28252 82529 29260 03216 32165 21658 65854 64182 84161 16178 17854 03131 13110 31102 02872 20183 01838 84144 44177 30839 08397 39769 69707
91597 21889 18895 89558 95588 81446 46467 64677 67707 22087 73047 47564 64196 41968 96863 86347 71101 11015 01534 42398 98646 44607 60797 97546 54691 91064 01536 64546 54690 90039 00396 96204 83167 31670 70337 74898 48987 98732 31529 15296 96030 84502 33267 32677 82529 25292 92603 21658 16585 58548 41828 41617 61785 78542 31311 31102 11028 10287 01838 41441 14417 44177 41773 08397 97697 69707
15972 18895 88955 95588 55881 14464 64677 46770 77073 07332 73322 20873 30475 75641 41968 19686 63471 11015 10153 15343 34442 23986 46079 07975 75469 46910 10644 15364 45469 46900 03962 62042 31670 16703 03374 48987 89873 98732 23152 15296 52960 60302 03022 84502 45022 22332 32677 26772 77282 28252 25292 52926 26032 16585 65854 85482 64182 18284 16178 17854 78542 85422 13110 31102 11028 10287 02872 28722 18384 14417 44177 41773 17730 83976 76970
59722 89558 55881 58814 46770 67707 70733 07332 73322 33220 08730 04756 56419 19686 34711 53433 34442 44423 39864 60797 79754 54691 69106 53645 54690 69003 03962 39620 62042 20428 16703 33748 89873 98732 87323 23152 31529 52960 29603 60302 03022 30228 84502 45022 50223 22332 23326 26772 67728 77282 72825 28252 82529 25292 52926 29260 26032 60321 58548 85482 54824 64182 41828 61785 78542 85422 54220 31102 11028 02872 28722 87220 41773 17730 39769 69707
97222 95588 67707 77073 07332 73322 33220 32208 87304 47564 96863 47110 34442 44423 44239 98646 07975 97546 91064 90039 03962 39620 96204 62042 20428 04283 67033 37489 98732 87323 73231 23152 31529 15296 96030 60302 03022 30228 02284 84502 45022 50223 02233 22332 23326 33267 26772 67728 77282 72825 28252 82529 25292 52926 29260 92603 26032 60321 03216 85482 54824 48246 64182 41828 18284 17854 78542 85422 54220 42203 31102 11028 10287 02872 28722 87220 72201 17730 77308 97697
72221 55881 77073 70733 73322 33220 32208 22087 73047 75641 63471 34711 71101 44423 44239 42398 79754 75469 54691 64401 39620 96204 62042 20428 04283 42831 70337 74898 87323 73231 32315 31529 15296 52960 03022 30228 02284 22845 45022 50223 02233 22332 23326 33267 32677 67728 77282 72825 28252 82529 25292 52926 29260 92603 60321 03216 32165 54824 48246 82464 24641 41828 18284 82841 84161 78542 85422 54220 42203 22031 03131 31311 11028 10287 02872 28722 87220 72201 22018 83841 41441 77308 73083 76970
22218 89558 95588 58814 33220 32208 22087 20873 56419 41968 34711 47110 11015 44239 42398 23986 46910 44015 96204 62042 20428 04283 42831 28316 33748 74898 73231 32315 23152 15296 52960 29603 30228 02284 22845 28450 50223 02233 22332 23326 33267 32677 26772 67728 77282 72825 28252 82529 25292 52926 29260 92603 26032 03216 32165 21658 58548 48246 82464 24641 46418 41828 18284 82841 28416 41617 16178 54220 42203 22031 20313 31311 13110 11028 10287 02872 28722 87220 72201 22018 20183 01838 38414 14417 77308
22188 95588 55881 88144 32208 22087 20873 64196 41968 19686 47110 71101 10153 42398 23986 69106 40153 62042 20428 04283 42831 28316 83167 33748 37489 74898 48987 32315 23152 52960 29603 30228 02284 22845 28450 02233 22332 23326 32677 26772 67728 77282 72825 28252 82529 25292 52926 29260 92603 26032 32165 21658 16585 58548 85482 82464 24641 46418 64182 41828 18284 82841 28416 84161 16178 61785 42203 22031 20313 03131 13110 31102 11028 10287 02872 28722 72201 22018 20183 01838 18384 84144 44177 77308 73083
21889 55881 58814 81446 22087 20873 56419 41968 19686 96863 71101 11015 01534 44239 23986 39864 46079 75469 91064 01536 45469 90039 20428 04283 42831 28316 31670 37489 74898 48987 89873 23152 31529 29603 02284 22845 28450 22332 23326 26772 77282 72825 28252 82529 25292 29260 26032 21658 16585 65854 85482 54824 24641 64182 41828 18284 82841 28416 41617 61785 17854 22031 20313 31311 31102 11028 10287 02872 28722 22018 20183 01838 18384 83841 41441 41773 73083 30839 39769
18895 58814 88144 14464 20873 08730 30475 64196 19686 96863 68634 11015 10153 15343 42398 39864 98646 60797 07975 54691 10644 44015 15364 53645 54690 00396 42831 28316 16703 74898 48987 89873 98732 32315 15296 22845 28450 72825 28252 25292 32165 16585 65854 58548 54824 48246 41828 18284 82841 28416 16178 61785 17854 78542 13110 11028 10287 02872 28722 01838 18384 83841 38414 14417 17730 30839 08397 97697
88955 88144 81446 08730 87304 30475 04756 41968 68634 86347 11015 10153 23986 98646 86464 07975 79754 46910 44015 40153 53645 36454 46900 03962 28316 83167 48987 89873 98732 87323 32315 23152 52960 22845 28450 84502 72825 28252 82529 52926 32165 21658 16585 65854 58548 85482 48246 82464 18284 82841 28416 84161 61785 17854 78542 85422 28722 87220 18384 83841 38414 84144 08397 83976 76970
89558 81446 32208 87304 04756 47564 41968 19686 86347 10153 01534 42398 39864 86464 79754 97546 69106 40153 01536 36454 64546 69003 39620 20428 83167 33748 74898 89873 87323 23152 31529 29603 30228 28450 84502 67728 28252 82529 29260 21658 16585 65854 58548 85482 82464 46418 41828 82841 84161 16178 17854 78542 85422 11028 87220 22018 01838 83841 84144 77308 83976 39769 69707
95588 32208 22087 47564 75641 41968 19686 96863 01534 15343 42398 23986 98646 97546 75469 91064 01536 15364 64546 45469 90039 96204 20428 04283 33748 37489 74898 48987 98732 31529 15296 96030 30228 02284 84502 45022 67728 77282 82529 25292 92603 21658 16585 65854 58548 85482 46418 64182 41828 18284 16178 61785 78542 85422 11028 10287 22018 20183 01838 18384 77308 73083 97697
55881 22087 20873 75641 56419 19686 96863 63471 34711 71101 15343 53433 23986 39864 75469 54691 64401 15364 53645 45469 54690 04283 42831 37489 74898 48987 89873 73231 15296 52960 02284 22845 45022 50223 77282 72825 25292 52926 60321 16585 65854 58548 85482 54824 24641 64182 41828 18284 82841 84161 61785 17854 85422 54220 22031 03131 31311 10287 02872 72201 20183 01838 18384 83841 41441 73083 30839
58814 20873 08730 87304 47564 56419 96863 68634 34711 47110 11015 01534 53433 34334 43344 33444 39864 98646 86464 64644 79754 54691 46910 91064 10644 44015 15364 53645 36454 54690 96204 42831 28316 03374 74898 48987 89873 98732 32315 52960 02284 22845 28450 50223 72825 28252 52926 03216 65854 58548 54824 48246 82464 46418 41828 18284 82841 28416 41617 17854 78542 54220 20313 31311 13110 02872 28722 22018 01838 18384 83841 38414 84144 14417 30839 08397
88144 08730 87304 73047 47564 75641 64196 68634 86347 47110 71101 10153 01534 15343 34334 43344 33444 34442 39864 98646 86464 64644 46446 79754 97546 69106 91064 10644 06440 40153 15364 53645 36454 64546 96204 62042 28316 83167 03374 33748 48987 89873 98732 87323 23152 02284 22845 28450 84502 28252 82529 32165 65854 58548 85482 54824 48246 82464 24641 64182 18284 82841 28416 84161 16178 17854 78542 85422 03131 13110 31102 28722 87220 20183 18384 83841 38414 84144 41441 44177 08397 83976
81446 87304 73047 30475 04756 75641 56419 64196 41968 19686 86347 63471 71101 11015 01534 15343 53433 43344 33444 34442 44423 23986 98646 86464 64644 46446 64460 97546 75469 69106 91064 10644 06440 64401 01536 53645 36454 64546 45469 00396 62042 20428 28316 83167 31670 33748 37489 89873 87323 31529 15296 22845 28450 84502 23326 82529 52926 03216 21658 58548 85482 48246 82464 24641 46418 41828 82841 28416 84161 41617 61785 78542 85422 31311 31102 11028 87220 01838 83841 38414 84144 41441 14417 41773 83976
14464 87304 30475 04756 47564 56419 64196 41968 19686 96863 68634 63471 34711 11015 10153 01534 15343 53433 34334 43344 33444 34442 44423 44239 39864 86464 64644 46446 64460 44607 79754 75469 54691 91064 10644 06440 64401 44015 15364 36454 64546 45469 54690 03962 96204 20428 04283 83167 16703 03374 37489 74898 15296 52960 02284 28450 84502 33267 29260 32165 16585 65854 85482 54824 82464 24641 46418 64182 18284 28416 84161 16178 17854 85422 54220 13110 11028 10287 18384 38414 84144 41441 14417 44177 17730 39769
44646 73047 04756 47564 75641 64196 41968 19686 68634 86347 34711 47110 15343 34334 43344 33444 34442 44423 44239 42398 23986 98646 64644 46446 64460 44607 46079 97546 54691 46910 69106 10644 06440 64401 44015 40153 01536 53645 64546 45469 54690 46900 00396 39620 62042 04283 42831 28316 31670 33748 74898 48987 15296 29603 22845 84502 45022 23326 32677 52926 92603 03216 21658 58548 54824 48246 24641 46418 64182 41828 82841 28416 84161 41617 78542 54220 42203 83841 84144 41441 14417 44177 41773 83976 97697
46467 22087 73047 30475 47564 56419 41968 96863 86347 63471 47110 53433 43344 33444 34442 44423 44239 42398 39864 86464 46446 64460 44607 46079 60797 75469 46910 91064 06440 64401 44015 40153 15364 36454 45469 46900 03962 96204 20428 42831 83167 16703 70337 37489 48987 52960 96030 28450 45022 33267 32677 26772 29260 26032 32165 16585 85482 48246 82464 46418 41828 28416 84161 41617 16178 85422 42203 10287 38414 41441 14417 44177 41773 08397 39769 97697 76970 69707
64677 22087 20873 73047 30475 04756 75641 64196 19686 68634 86347 63471 34711 34334 34442 44423 44239 98646 64644 64460 44607 46079 60797 07975 54691 69106 10644 64401 44015 53645 64546 54690 69003 39620 62042 04283 83167 31670 67033 70337 03374 74898 48987 89873 29603 60302 84502 33267 32677 26772 67728 92603 60321 21658 65854 54824 24641 64182 84161 41617 16178 61785 54220 10287 02872 84144 14417 44177 41773 08397 83976 97697 76970 69707
46770 33220 20873 08730 30475 04756 47564 56419 41968 96863 86347 63471 34711 47110 43344 44423 44239 42398 86464 46446 64460 44607 46079 60797 07975 79754 46910 06440 44015 40153 36454 45469 54690 46900 39620 96204 42831 31670 16703 03374 33748 48987 89873 98732 52960 96030 28450 45022 32677 26772 67728 29260 26032 16585 48246 46418 41828 41617 16178 61785 54220 42203 13110 02872 28722 87220 41441 44177 41773 17730 83976 39769 76970 69707
67707 32208 22087 08730 87304 73047 04756 47564 64196 68634 86347 63471 34711 47110 71101 64644 64460 44607 60797 07975 79754 97546 69106 64401 64546 46900 69003 96204 62042 83167 16703 67033 70337 33748 37489 48987 98732 87323 29603 60302 84502 33267 32677 26772 67728 77282 92603 60321 65854 64182 41617 61785 17854 42203 31102 10287 28722 87220 72201 14417 44177 41773 17730 77308 08397 39769 97697 69707
77073 22087 20873 87304 73047 30475 47564 75641 96863 63471 47110 71101 11015 10153 15343 53433 44423 46079 07975 79754 97546 75469 91064 44015 40153 69003 90039 62042 04283 31670 16703 67033 70337 03374 37489 74898 89873 87323 73231 29603 96030 03022 45022 50223 02233 32677 26772 67728 77282 72825 92603 26032 16178 17854 78542 42203 22031 20313 11028 02872 87220 72201 22018 20183 44177 41773 17730 77308 73083 83976 97697 76970
70733 20873 08730 73047 30475 04756 75641 96863 68634 34711 71101 10153 01534 15343 53433 34334 44423 44239 60797 79754 75469 10644 40153 01536 69003 90039 00396 20428 04283 42831 16703 67033 70337 33748 74898 89873 98732 87323 73231 29603 96030 60302 30228 50223 02233 22332 26772 67728 77282 72825 92603 26032 60321 61785 78542 42203 22031 20313 03131 10287 28722 72201 20183 01838 41773 17730 77308 73083 30839 39769 76970 69707
07332 08730 87304 04756 47564 68634 86347 47110 01534 15343 53433 34334 43344 34442 44239 42398 07975 97546 06440 01536 15364 90039 00396 03962 62042 04283 42831 28316 67033 70337 03374 37489 98732 87323 73231 32315 23152 96030 60302 03022 02284 84502 45022 02233 22332 23326 26772 67728 77282 28252 25292 26032 60321 03216 85482 64182 17854 78542 85422 22031 20313 03131 31311 31102 02872 28722 87220 01838 18384 17730 77308 30839 08397 97697
73322 87304 73047 75641 86347 63471 71101 15343 53433 34334 43344 33444 34442 44423 42398 23986 79754 75469 15364 53645 00396 03962 39620 62042 20428 28316 83167 70337 03374 33748 74898 98732 87323 73231 32315 23152 31529 60302 03022 30228 84502 45022 50223 22332 23326 33267 26772 67728 77282 72825 28252 82529 25292 52926 26032 60321 03216 85482 54824 64182 41828 78542 85422 54220 20313 03131 31311 13110 31102 11028 02872 28722 87220 72201 18384 83841 77308 73083 08397 83976 76970
33220 73047 30475 63471 34711 47110 53433 34334 43344 33444 34442 44423 44239 23986 39864 64460 46910 06440 53645 36454 54690 46900 03962 39620 96204 20428 04283 83167 31670 03374 33748 37489 87323 73231 32315 23152 31529 15296 52960 96030 03022 30228 02284 28450 45022 50223 02233 23326 33267 32677 67728 77282 72825 28252 82529 25292 52926 29260 60321 03216 32165 54824 48246 41828 18284 85422 54220 42203 03131 31311 13110 31102 11028 10287 28722 87220 72201 83841 38414 17730 73083 30839 83976 39769 76970
32208 30475 41968 34711 71101 34334 33444 34442 44239 42398 39864 44607 69106 64401 36454 46900 69003 39620 96204 62042 20428 04283 42831 31670 16703 33748 37489 74898 73231 32315 31529 15296 52960 29603 60302 30228 02284 22845 84502 50223 02233 22332 33267 32677 67728 77282 72825 28252 82529 25292 52926 29260 92603 03216 32165 21658 58548 48246 82464 46418 41828 18284 82841 16178 54220 42203 22031 31311 31102 11028 10287 02872 87220 72201 22018 01838 38414 77308 30839 39769 69707
22087 19686 86347 11015 42398 23986 44607 46079 60797 91064 44015 69003 90039 62042 20428 04283 42831 28316 83167 67033 70337 37489 48987 32315 23152 52960 29603 96030 03022 02284 22845 28450 45022 02233 22332 23326 33267 32677 26772 77282 72825 28252 82529 25292 52926 29260 92603 26032 32165 21658 16585 85482 82464 24641 64182 18284 82841 28416 41617 61785 42203 22031 20313 11028 10287 02872 28722 72201 22018 20183 18384 14417 44177 73083 08397 97697 69707
20873 96863 63471 10153 15343 53433 44423 23986 39864 46079 60797 07975 10644 40153 69003 90039 00396 20428 04283 42831 28316 31670 16703 67033 70337 03374 74898 89873 87323 23152 29603 60302 30228 22845 28450 50223 02233 22332 23326 32677 26772 72825 28252 25292 29260 92603 26032 60321 21658 65854 54824 24641 41828 82841 28416 16178 17854 42203 22031 20313 10287 02872 28722 22018 20183 01838 83841 44177 41773 73083 30839 83976 76970
08730 68634 34711 47110 01534 53433 34334 44239 98646 64460 60797 07975 79754 46910 06440 01536 54690 46900 90039 00396 03962 39620 04283 42831 28316 31670 16703 67033 70337 03374 33748 48987 98732 73231 52960 96030 03022 02284 28450 02233 22332 26772 67728 28252 29260 26032 03216 58548 48246 18284 28416 61785 78542 54220 22031 03131 13110 02872 28722 87220 01838 18384 38414 41773 17730 30839 08397 39769 76970 69707
87304 68634 86347 47110 71101 01534 15343 34334 43344 33444 42398 39864 86464 64644 44607 07975 79754 97546 69106 91064 10644 64401 15364 36454 46900 69003 00396 96204 28316 83167 16703 67033 70337 03374 37489 89873 87323 32315 29603 60302 02284 84502 22332 23326 67728 77282 82529 92603 60321 65854 85482 54824 82464 18284 82841 84161 17854 85422 42203 20313 31311 31102 87220 72201 18384 83841 38414 84144 17730 77308 08397 83976 97697 69707
73047 86347 63471 71101 11015 15343 53433 43344 33444 34442 23986 98646 64644 46446 44607 46079 60797 79754 97546 75469 91064 10644 06440 44015 53645 64546 69003 90039 03962 62042 83167 67033 70337 03374 33748 74898 48987 73231 23152 96030 03022 22845 45022 23326 33267 32677 77282 72825 26032 03216 58548 48246 24641 82841 41617 78542 22031 03131 13110 11028 10287 72201 22018 83841 84144 41441 14417 44177 77308 73083 08397 83976 97697 76970 69707
30475 63471 34711 11015 10153 53433 34334 33444 34442 44423 39864 86464 46446 64460 46079 60797 07975 75469 10644 06440 64401 44015 40153 53645 36454 45469 90039 00396 39620 20428 31670 70337 03374 33748 37489 89873 32315 31529 60302 30228 22845 28450 50223 33267 32677 26772 72825 60321 32165 16585 85482 82464 46418 28416 16178 61785 85422 20313 31311 31102 10287 02872 20183 38414 41441 14417 44177 41773 30839 83976 39769 76970
04756 19686 34711 10153 01534 34334 34442 44423 44239 23986 98646 64644 46446 64460 44607 60797 07975 79754 97546 54691 69106 06440 64401 44015 40153 01536 36454 64546 54690 00396 03962 04283 28316 16703 03374 33748 74898 98732 23152 15296 03022 02284 28450 84502 02233 23326 26772 67728 28252 52926 03216 21658 65854 54824 48246 24641 64182 28416 84161 61785 17854 54220 03131 02872 28722 01838 84144 14417 44177 41773 17730 08397 83976 39769 69707
47564 96863 68634 47110 01534 34334 43344 33444 44423 44239 42398 39864 86464 64644 46446 64460 44607 46079 07975 79754 97546 75469 46910 91064 10644 44015 40153 01536 15364 36454 64546 45469 46900 03962 96204 42831 83167 67033 03374 37489 48987 87323 31529 52960 02284 84502 45022 33267 67728 77282 82529 29260 32165 16585 65854 58548 54824 48246 82464 46418 41828 18284 84161 41617 17854 78542 42203 87220 18384 38414 84144 41441 44177 41773 17730 77308 39769 97697
75641 68634 86347 63471 34711 71101 15343 43344 33444 34442 98646 64644 46446 44607 79754 97546 75469 54691 10644 06440 64401 15364 53645 64546 45469 54690 39620 62042 42831 31670 70337 33748 74898 73231 15296 29603 22845 45022 32677 77282 72825 25292 92603 60321 21658 65854 58548 85482 48246 24641 82841 84161 41617 78542 85422 22031 03131 31311 72201 83841 84144 41441 77308 73083 97697 76970
56419 86347 63471 34711 47110 11015 53433 33444 34442 44423 44239 86464 46446 64460 46079 75469 54691 46910 06440 64401 44015 53645 36454 45469 54690 46900 90039 96204 20428 28316 16703 37489 32315 31529 52960 96030 28450 50223 26772 82529 52926 26032 03216 16585 58548 85482 54824 82464 46418 28416 41617 16178 85422 54220 20313 31311 13110 22018 38414 41441 14417 30839 39769 76970
64196 63471 34711 47110 71101 10153 34334 34442 44423 44239 42398 23986 98646 64644 46446 64460 44607 60797 97546 54691 69106 64401 44015 40153 01536 64546 54690 69003 00396 62042 04283 28316 83167 67033 74898 23152 15296 60302 84502 23326 67728 25292 52926 60321 03216 32165 65854 54824 48246 24641 64182 28416 84161 16178 61785 54220 03131 13110 31102 20183 84144 14417 44177 08397 83976 97697 69707
41968 47110 71101 11015 01534 43344 44423 44239 42398 23986 39864 86464 46446 64460 44607 46079 07975 75469 46910 91064 44015 40153 01536 15364 45469 46900 03962 20428 42831 83167 31670 33748 74898 48987 31529 52960 30228 45022 33267 67728 52926 29260 32165 21658 58548 48246 82464 46418 41828 84161 41617 16178 61785 42203 31311 31102 11028 22018 01838 41441 44177 41773 77308 83976 39769 76970
19686 11015 10153 15343 23986 39864 98646 64644 46446 44607 79754 97546 54691 69106 10644 01536 15364 53645 64546 54690 69003 00396 39620 04283 28316 31670 16703 37489 48987 89873 15296 29603 02284 23326 32677 77282 52926 29260 92603 03216 21658 16585 85482 48246 24641 64182 18284 28416 41617 16178 61785 17854 13110 11028 10287 20183 18384 14417 17730 73083 83976 39769 97697 69707
96863 10153 15343 53433 44423 39864 98646 86464 46446 64460 46079 97546 75469 46910 91064 06440 40153 15364 36454 45469 46900 69003 90039 03962 96204 04283 42831 83167 16703 67033 74898 89873 98732 87323 52960 29603 96030 22845 50223 02233 33267 26772 72825 29260 92603 26032 32165 16585 65854 54824 82464 46418 41828 82841 84161 16178 17854 42203 20313 02872 20183 01838 83841 41773 73083 30839 39769 97697 76970
68634 01534 53433 34334 43344 33444 44239 39864 98646 86464 64644 64460 44607 60797 79754 54691 69106 91064 10644 64401 01536 15364 53645 36454 64546 54690 69003 90039 39620 96204 62042 42831 28316 31670 67033 70337 03374 48987 98732 73231 29603 96030 60302 02284 28450 02233 22332 32677 67728 28252 92603 26032 60321 21658 65854 58548 54824 48246 82464 24641 64182 18284 28416 41617 61785 17854 78542 22031 03131 28722 01838 18384 38414 84144 17730 30839 08397 97697 69707
86347 15343 34334 43344 33444 34442 42398 98646 86464 64644 46446 44607 46079 60797 97546 46910 10644 06440 15364 53645 36454 64546 46900 00396 96204 62042 28316 83167 16703 70337 03374 33748 48987 89873 87323 32315 96030 60302 22845 84502 22332 23326 33267 32677 26772 82529 26032 60321 16585 58548 85482 48246 82464 24641 46418 82841 84161 41617 16178 78542 85422 20313 31311 10287 87220 18384 83841 84144 41441 14417 44177 77308 08397 83976 97697 76970 69707
63471 53433 43344 33444 34442 44423 23986 86464 64644 46446 64460 46079 60797 07975 75469 54691 69106 06440 64401 53645 36454 64546 45469 69003 03962 62042 20428 42831 83167 31670 67033 03374 33748 37489 89873 73231 23152 60302 03022 28450 23326 33267 32677 26772 67728 60321 03216 65854 85482 82464 24641 46418 64182 82841 28416 84161 16178 61785 85422 22031 03131 31311 13110 02872 72201 83841 38414 41441 14417 44177 41773 73083 83976 76970 69707
34711 34334 33444 34442 44423 44239 39864 64644 64460 44607 60797 79754 54691 46910 64401 44015 36454 64546 54690 39620 04283 42831 28316 31670 16703 33748 37489 74898 98732 73231 32315 31529 30228 84502 33267 32677 26772 67728 60321 03216 32165 54824 24641 46418 64182 82841 28416 84161 41617 61785 54220 22031 20313 03131 31311 13110 31102 28722 72201 22018 83841 38414 84144 41441 14417 44177 41773 17730 30839 39769 69707
47110 43344 44423 44239 42398 46446 64460 44607 46079 07975 97546 46910 69106 06440 44015 40153 45469 54690 46900 39620 42831 28316 83167 31670 67033 37489 48987 87323 32315 23152 52960 96030 28450 45022 67728 77282 29260 03216 32165 48246 46418 64182 41828 28416 84161 41617 16178 17854 54220 42203 20313 03131 31311 13110 31102 87220 22018 20183 38414 84144 41441 14417 44177 41773 17730 77308 97697 76970
71101 44607 79754 75469 54691 69106 91064 64401 40153 01536 46900 69003 96204 42831 83167 31670 16703 70337 74898 73231 23152 31529 29603 60302 84502 77282 72825 92603 60321 32165 21658 24641 64182 41828 82841 84161 41617 16178 61785 78542 42203 22031 03131 31311 13110 31102 11028 72201 20183 01838 83841 84144 41441 44177 41773 77308 73083 76970 69707
11015 46079 07975 46910 91064 10644 44015 01536 15364 53645 69003 90039 62042 28316 31670 16703 67033 32315 31529 15296 96030 03022 22845 45022 72825 26032 03216 32165 21658 16585 46418 41828 18284 28416 41617 16178 61785 17854 22031 20313 31311 13110 31102 11028 10287 22018 01838 18384 38414 41441 14417 41773 17730 73083
10153 44423 60797 79754 69106 10644 40153 15364 36454 69003 90039 00396 20428 04283 83167 16703 67033 70337 89873 87323 23152 15296 29603 60302 30228 28450 50223 02233 28252 92603 60321 32165 21658 16585 65854 64182 18284 84161 16178 17854 42203 20313 03131 13110 31102 11028 10287 20183 18384 84144 14417 44177 41773 17730 73083 30839
01534 33444 44239 39864 86464 64644 07975 79754 97546 91064 10644 06440 01536 15364 36454 64546 90039 00396 03962 96204 04283 42831 31670 67033 70337 03374 98732 73231 31529 96030 03022 02284 84502 02233 22332 82529 26032 03216 21658 16585 65854 58548 54824 82464 41828 18284 41617 61785 17854 78542 22031 03131 31311 31102 11028 02872 01838 18384 38414 84144 41441 41773 17730 30839 08397
15343 34442 44423 42398 98646 64644 46446 97546 75469 10644 06440 40153 15364 53645 64546 45469 69003 00396 62042 04283 28316 16703 67033 70337 03374 33748 89873 87323 32315 15296 29603 60302 22845 45022 50223 02233 22332 23326 25292 92603 60321 16585 65854 58548 85482 48246 24641 18284 82841 16178 17854 78542 85422 42203 20313 31311 13110 11028 10287 20183 18384 83841 84144 41441 14417 41773 17730 77308 73083 08397
53433 44423 44239 23986 86464 46446 64460 75469 54691 06440 64401 40153 01536 53645 36454 45469 54690 69003 90039 03962 20428 04283 42831 83167 16703 67033 70337 03374 33748 37489 89873 98732 87323 73231 23152 52960 29603 96030 03022 28450 50223 02233 22332 23326 33267 52926 92603 26032 03216 58548 85482 54824 82464 46418 28416 85422 54220 42203 22031 20313 03131 13110 20183 01838 83841 38414 41441 14417 41773 17730 73083 30839 83976
34334 44239 42398 39864 86464 64644 64460 44607 79754 54691 91064 10644 64401 44015 01536 15364 36454 64546 54690 90039 00396 39620 96204 04283 42831 28316 31670 67033 70337 03374 33748 37489 74898 98732 87323 73231 32315 31529 96030 60302 30228 02284 84502 02233 22332 23326 33267 32677 26032 60321 32165 65854 54824 82464 24641 64182 18284 84161 17854 54220 22031 20313 03131 31311 31102 01838 18384 38414 84144 14417 44177 17730 77308 30839 08397 39769
43344 42398 23986 39864 98646 86464 64644 46446 44607 46079 79754 97546 46910 91064 10644 06440 44015 40153 15364 53645 36454 64546 45469 46900 00396 03962 96204 62042 42831 28316 83167 70337 03374 33748 48987 87323 73231 32315 23152 60302 03022 02284 22845 45022 22332 23326 33267 60321 03216 65854 58548 54824 48246 82464 24641 46418 41828 18284 82841 41617 17854 78542 42203 20313 03131 31311 13110 18384 83841 38414 84144 41441 44177 41773 77308 73083 08397 83976
33444 23986 39864 98646 86464 64644 46446 64460 79754 97546 75469 91064 10644 06440 64401 15364 53645 36454 64546 45469 03962 39620 96204 62042 20428 83167 31670 03374 33748 37489 73231 32315 23152 31529 03022 30228 02284 22845 28450 23326 33267 32677 03216 32165 65854 58548 85482 54824 48246 82464 24641 46418 18284 82841 28416 17854 78542 85422 03131 31311 13110 31102 18384 83841 38414 84144 41441 14417 73083 30839 83976 39769
34442 39864 98646 86464 64644 46446 64460 44607 97546 75469 54691 10644 06440 64401 44015 53645 36454 64546 45469 54690 03962 39620 62042 20428 04283 31670 33748 37489 74898 98732 32315 23152 31529 60302 03022 30228 22845 28450 84502 45022 22332 33267 32677 26772 77282 28252 25292 26032 32165 58548 85482 54824 48246 82464 24641 46418 64182 82841 28416 84161 78542 85422 54220 31311 31102 02872 28722 83841 38414 84144 41441 14417 44177 30839 39769
44423 86464 64644 46446 64460 44607 46079 75469 54691 46910 06440 64401 44015 40153 36454 64546 45469 54690 46900 69003 39620 20428 04283 42831 16703 67033 37489 74898 48987 89873 87323 31529 29603 03022 30228 28450 84502 45022 50223 02233 23326 67728 72825 82529 52926 92603 60321 85482 54824 48246 82464 24641 46418 64182 41828 28416 84161 41617 85422 54220 42203 20313 11028 28722 87220 20183 38414 84144 41441 14417 44177 41773 73083
44239 64644 46446 64460 44607 46079 75469 54691 46910 64401 44015 40153 01536 64546 45469 54690 46900 90039 96204 04283 42831 67033 70337 37489 74898 48987 98732 73231 31529 15296 96030 30228 02284 84502 45022 50223 02233 22332 33267 77282 28252 82529 25292 29260 26032 03216 54824 48246 24641 46418 64182 41828 18284 84161 41617 54220 42203 22031 03131 10287 87220 72201 01838 84144 41441 14417 44177 41773 17730 30839 39769
42398 46446 44607 46079 60797 54691 46910 44015 40153 15364 45469 54690 46900 00396 62042 20428 42831 28316 70337 03374 33748 74898 48987 87323 32315 15296 52960 60302 30228 02284 22845 45022 02233 22332 23326 32677 67728 72825 82529 25292 52926 92603 60321 32165 21658 58548 48246 82464 46418 41828 82841 41617 16178 42203 22031 20313 31311 11028 02872 72201 22018 01838 18384 41441 44177 41773 77308 08397 97697
23986 46446 07975 97546 46910 69106 01536 53645 64546 46900 00396 03962 20428 04283 28316 83167 03374 33748 37489 48987 73231 23152 15296 52960 29603 03022 02284 22845 28450 22332 23326 33267 26772 77282 28252 25292 52926 29260 26032 03216 21658 16585 85482 48246 24641 64182 18284 28416 61785 22031 20313 03131 13110 10287 28722 22018 20183 18384 83841 73083 83976 76970
39864 64460 79754 75469 69106 91064 10644 15364 36454 45469 69003 03962 39620 96204 42831 83167 31670 03374 33748 37489 74898 89873 32315 31529 52960 29603 30228 02284 22845 33267 32677 72825 29260 32165 65854 54824 82464 41828 18284 82841 84161 17854 31311 31102 02872 01838 18384 83841 38414 84144 30839 39769 69707
98646 44607 97546 54691 69106 91064 10644 06440 01536 53645 64546 54690 90039 00396 39620 96204 62042 28316 31670 33748 48987 98732 15296 29603 96030 22845 28450 23326 32677 28252 52926 92603 03216 21658 58548 48246 24641 18284 82841 28416 41617 78542 28722 18384 83841 38414 84144 41441 08397 83976 97697
86464 46079 79754 75469 46910 91064 10644 06440 64401 15364 36454 45469 46900 03962 96204 20428 83167 16703 03374 37489 89873 87323 52960 96030 02284 28450 84502 33267 26772 82529 29260 26032 32165 16585 65854 85482 54824 82464 46418 18284 82841 28416 84161 16178 17854 85422 87220 18384 83841 38414 84144 41441 14417 83976 39769 76970
64644 60797 79754 97546 54691 69106 91064 10644 06440 64401 44015 15364 53645 36454 64546 54690 69003 39620 96204 62042 04283 31670 67033 03374 33748 74898 29603 60302 02284 22845 84502 32677 67728 92603 60321 21658 65854 58548 54824 48246 82464 24641 64182 18284 82841 84161 41617 61785 17854 78542 54220 18384 83841 38414 84144 41441 14417 44177 97697 69707
46446 97546 75469 46910 69106 10644 06440 64401 44015 40153 01536 53645 36454 64546 45469 46900 00396 96204 62042 20428 42831 28316 16703 33748 37489 48987 15296 96030 22845 28450 45022 23326 26772 52926 26032 03216 16585 58548 85482 48246 82464 24641 46418 41828 82841 28416 41617 16178 78542 85422 42203 83841 38414 84144 41441 14417 44177 41773 83976 76970
64460 75469 54691 46910 69106 91064 06440 64401 44015 15364 36454 64546 45469 54690 46900 69003 03962 39620 62042 20428 04283 83167 31670 67033 37489 74898 52960 96030 60302 28450 84502 33267 67728 29260 60321 32165 65854 85482 54824 82464 24641 46418 64182 28416 84161 61785 85422 54220 13110 87220 38414 84144 41441 14417 44177 17730 39769 76970 69707
44607 54691 46910 69106 10644 64401 44015 40153 53645 64546 45469 54690 46900 69003 39620 96204 04283 42831 83167 31670 16703 70337 74898 48987 29603 60302 84502 45022 33267 32677 92603 21658 54824 48246 24641 46418 64182 41828 84161 41617 54220 42203 31102 10287 72201 84144 41441 14417 44177 41773 77308 08397 97697 69707
46079 75469 46910 91064 06440 44015 40153 36454 45469 46900 69003 90039 96204 62042 42831 31670 16703 67033 03374 37489 48987 89873 31529 96030 03022 45022 32677 26772 82529 26032 16585 48246 46418 41828 41617 16178 42203 22031 11028 02872 22018 41441 44177 41773 73083 30839 83976 39769 76970
60797 54691 69106 10644 64401 40153 64546 54690 69003 90039 00396 62042 20428 83167 16703 67033 70337 33748 74898 48987 98732 15296 60302 30228 50223 33267 32677 26772 67728 25292 60321 65854 64182 41617 61785 20313 10287 28722 20183 14417 44177 41773 17730 30839 08397 39769 97697 69707
07975 46910 06440 44015 01536 53645 46900 00396 03962 04283 31670 67033 03374 37489 48987 89873 87323 32315 52960 03022 02284 22845 02233 32677 26772 67728 77282 72825 52926 03216 32165 16585 16178 61785 17854 03131 02872 87220 01838 44177 41773 17730 77308 08397 83976 97697 76970
79754 69106 91064 10644 40153 15364 36454 69003 39620 96204 16703 70337 03374 33748 74898 89873 98732 73231 23152 29603 02284 28450 26772 67728 77282 72825 28252 29260 21658 65854 54824 82464 18284 61785 17854 78542 28722 72201 18384 38414 84144 41773 17730 77308 73083 39769 76970 69707
97546 91064 10644 06440 01536 53645 64546 90039 00396 96204 62042 28316 67033 33748 37489 98732 87323 31529 15296 96030 22845 84502 23326 67728 77282 82529 52926 92603 03216 16585 58548 48246 24641 82841 28416 17854 78542 87220 83841 84144 41441 17730 77308 83976 97697
75469 06440 64401 15364 36454 45469 90039 03962 20428 83167 70337 37489 74898 73231 31529 15296 52960 28450 45022 33267 77282 72825 82529 25292 29260 32165 65854 85482 82464 46418 28416 84161 78542 85422 72201 38414 41441 14417 77308 73083 30839 39769 76970
54691 64401 44015 53645 64546 54690 00396 39620 04283 42831 31670 74898 73231 15296 52960 29603 84502 50223 32677 25292 52926 92603 60321 21658 58548 54824 24641 64182 82841 84161 41617 54220 22031 03131 31311 72201 83841 84144 41441 14417 44177 08397 97697
46910 44015 40153 36454 45469 54690 46900 03962 39620 96204 42831 28316 31670 16703 48987 32315 52960 96030 28450 45022 26772 52926 29260 26032 03216 16585 48246 46418 41828 28416 41617 16178 54220 42203 20313 31311 13110 87220 22018 38414 41441 14417 44177 41773 17730 83976 76970
69106 40153 01536 64546 46900 69003 00396 39620 96204 62042 28316 83167 16703 67033 89873 23152 15296 29603 60302 84502 23326 67728 52926 29260 92603 60321 03216 32165 65854 48246 64182 28416 84161 16178 61785 42203 03131 13110 31102 72201 20183 84144 44177 77308 83976 39769 69707
91064 01536 15364 36454 45469 69003 90039 03962 96204 62042 83167 31670 67033 03374 98732 31529 52960 96030 03022 02284 45022 33267 29260 92603 26032 32165 21658 65854 54824 82464 41828 18284 84161 41617 61785 17854 22031 31311 31102 11028 22018 01838 18384 38414 84144 41441 41773 73083 39769 97697
10644 15364 53645 36454 64546 54690 90039 00396 39620 96204 62042 20428 31670 16703 70337 03374 33748 15296 29603 60302 30228 02284 22845 50223 32677 92603 60321 21658 16585 65854 58548 54824 48246 82464 24641 18284 82841 41617 16178 17854 78542 20313 13110 11028 10287 20183 18384 83841 38414 84144 41441 14417 17730 30839 97697
06440 53645 36454 64546 45469 54690 46900 00396 03962 39620 96204 62042 20428 04283 31670 16703 03374 33748 37489 52960 96030 03022 02284 22845 28450 02233 26772 29260 26032 03216 16585 58548 85482 48246 82464 24641 46418 82841 28416 16178 78542 85422 54220 03131 13110 02872 87220 01838 83841 38414 84144 41441 14417 17730 08397 76970
64401 36454 64546 45469 54690 46900 69003 96204 62042 20428 04283 42831 16703 67033 37489 74898 73231 29603 60302 28450 84502 67728 92603 60321 65854 85482 54824 82464 24641 46418 64182 82841 28416 84161 61785 85422 54220 42203 22031 03131 31311 31102 72201 83841 38414 84144 41441 14417 44177 77308 69707
44015 64546 45469 54690 46900 69003 90039 62042 04283 42831 28316 67033 74898 48987 32315 96030 03022 22845 84502 45022 72825 26032 03216 32165 16585 54824 48246 24641 46418 64182 41828 28416 84161 41617 61785 54220 42203 22031 20313 31311 13110 11028 22018 38414 84144 41441 14417 44177 41773 73083
40153 45469 46900 69003 90039 00396 20428 04283 42831 83167 16703 67033 70337 48987 89873 87323 23152 29603 60302 30228 28450 45022 50223 02233 28252 92603 60321 32165 21658 65854 48246 46418 64182 41828 84161 41617 16178 17854 42203 20313 03131 13110 31102 10287 20183 84144 41441 44177 41773 73083 30839
01536 90039 00396 03962 04283 42831 28316 31670 67033 70337 03374 98732 73231 31529 15296 96030 03022 02284 84502 02233 22332 23326 82529 52926 26032 03216 21658 16585 58548 48246 41828 28416 41617 61785 78542 22031 03131 31311 31102 11028 02872 01838 41441 41773 17730 30839 08397 83976
15364 00396 03962 96204 28316 83167 16703 70337 03374 87323 32315 15296 52960 60302 02284 45022 22332 23326 33267 25292 29260 60321 32165 16585 65854 85482 54824 82464 18284 84161 16178 17854 85422 20313 31311 13110 11028 10287 18384 38414 84144 14417 17730 77308 08397 39769
53645 03962 39620 62042 83167 31670 03374 33748 73231 32315 23152 52960 29603 03022 22845 50223 23326 33267 32677 72825 52926 92603 03216 32165 21658 16585 58548 54824 48246 24641 82841 41617 61785 78542 54220 03131 13110 83841 84144 41441 73083 83976 97697
36454 39620 96204 20428 31670 16703 03374 33748 37489 32315 23152 31529 96030 30228 02284 28450 33267 32677 26772 28252 26032 32165 21658 16585 65854 85482 54824 82464 46418 18284 28416 16178 17854 85422 31311 31102 18384 38414 84144 41441 14417 30839 39769 76970
64546 00396 62042 04283 28316 67033 33748 74898 31529 15296 60302 22845 84502 23326 67728 82529 52926 60321 03216 16585 65854 58548 54824 48246 24641 64182 82841 28416 84161 61785 78542 54220 83841 84144 41441 14417 44177 83976 69707
45469 03962 20428 42831 83167 37489 48987 31529 15296 52960 28450 45022 33267 82529 25292 29260 32165 65854 85482 48246 82464 46418 41828 28416 84161 41617 85422 42203 38414 41441 14417 44177 41773 30839 39769
54690 39620 04283 31670 74898 15296 52960 29603 96030 28450 84502 50223 32677 25292 52926 29260 92603 21658 58548 54824 24641 64182 84161 41617 54220 13110 87220 84144 14417 44177 17730 08397 97697 76970
46900 39620 96204 42831 31670 16703 48987 52960 29603 96030 60302 28450 84502 45022 26772 52926 29260 92603 26032 16585 48246 46418 41828 41617 16178 54220 42203 13110 31102 87220 72201 41441 44177 41773 17730 77308 83976 76970 69707
69003 96204 62042 04283 16703 67033 89873 87323 29603 96030 60302 03022 84502 45022 50223 02233 67728 29260 92603 26032 60321 65854 64182 61785 42203 22031 20313 31102 11028 72201 22018 20183 41773 77308 73083 39769 69707
90039 62042 20428 42831 67033 70337 37489 98732 73231 31529 96030 60302 03022 30228 45022 50223 02233 22332 82529 92603 26032 60321 22031 20313 03131 11028 10287 22018 20183 01838 17730 73083 30839 39769 97697
00396 20428 04283 28316 70337 03374 74898 87323 32315 15296 60302 03022 30228 02284 50223 02233 22332 23326 25292 52926 60321 03216 48246 28416 20313 03131 31311 10287 02872 20183 01838 18384 77308 30839 08397 83976 97697
03962 04283 83167 03374 33748 48987 98732 73231 23152 52960 60302 03022 02284 84502 45022 02233 22332 23326 33267 26772 77282 28252 25292 52926 29260 26032 03216 32165 85482 82464 64182 84161 78542 85422 03131 13110 31102 02872 28722 01838 83841 73083 08397 83976 39769 76970
39620 31670 33748 37489 89873 87323 32315 31529 52960 29603 96030 03022 30228 28450 45022 50223 23326 33267 32677 67728 72825 82529 52926 29260 92603 60321 32165 21658 54824 24641 41828 41617 85422 54220 31311 13110 31102 11028 28722 87220 38414 17730 30839 39769 97697 76970 69707
96204 16703 03374 98732 73231 15296 29603 96030 60302 30228 02284 84502 50223 02233 33267 26772 77282 28252 25292 29260 92603 26032 03216 16585 65854 54824 48246 82464 46418 18284 16178 17854 54220 42203 31102 10287 87220 72201 18384 38414 84144 77308 97697 76970 69707
62042 67033 33748 98732 32315 23152 52960 96030 60302 03022 02284 22845 84502 45022 02233 22332 32677 26772 67728 77282 72825 28252 82529 25292 52926 92603 26032 60321 32165 65854 58548 85482 48246 82464 24641 64182 82841 61785 78542 85422 42203 22031 31102 11028 02872 28722 72201 22018 83841 84144 41441 73083 69707
20428 70337 33748 37489 74898 87323 23152 31529 29603 60302 03022 30228 22845 28450 45022 50223 22332 23326 26772 67728 72825 28252 82529 25292 52926 29260 26032 60321 21658 58548 85482 54824 82464 24641 46418 41828 28416 16178 85422 54220 22031 20313 11028 10287 28722 87220 22018 20183 01838 38414 41441 14417 77308 30839
04283 16703 67033 03374 37489 74898 48987 89873 87323 73231 15296 29603 03022 30228 02284 84502 50223 02233 33267 77282 28252 25292 29260 92603 03216 16585 85482 54824 48246 24641 64182 18284 84161 61785 54220 42203 20313 03131 10287 02872 87220 72201 20183 01838 18384 84144 14417 44177 41773 73083 08397
42831 67033 70337 74898 48987 89873 98732 73231 32315 52960 96030 02284 22845 45022 02233 22332 32677 72825 82529 52926 92603 26032 60321 32165 65854 54824 48246 82464 24641 46418 41828 82841 84161 41617 17854 42203 22031 03131 31311 02872 72201 22018 01838 83841 41441 44177 41773 17730 30839
28316 70337 03374 48987 98732 87323 32315 23152 15296 29603 60302 22845 28450 22332 23326 26772 28252 25292 52926 29260 26032 60321 03216 21658 58548 48246 24641 46418 18284 28416 41617 78542 22031 20313 31311 13110 28722 22018 20183 18384 38414 14417 77308 08397 83976
83167 03374 33748 48987 89873 87323 73231 23152 52960 03022 84502 23326 33267 32677 82529 29260 03216 32165 85482 82464 64182 82841 84161 41617 16178 85422 03131 13110 31102 10287 87220 20183 83841 84144 14417 44177 73083 08397 83976 39769 97697 69707
31670 33748 37489 89873 32315 31529 52960 29603 96030 30228 28450 33267 32677 26772 29260 92603 32165 21658 24641 41828 41617 16178 61785 54220 31311 13110 31102 11028 02872 87220 01838 38414 41441 44177 41773 17730 30839 83976 39769 97697 76970
16703 89873 98732 87323 15296 29603 96030 60302 84502 50223 02233 26772 67728 92603 26032 16585 46418 18284 16178 61785 17854 42203 20313 13110 31102 11028 10287 28722 72201 20183 18384 14417 41773 17730 77308 73083 39769 76970 69707
67033 89873 98732 87323 73231 29603 96030 60302 03022 45022 50223 02233 22332 67728 77282 92603 26032 60321 65854 64182 61785 17854 42203 22031 20313 03131 11028 87220 22018 20183 01838 41773 17730 77308 73083 30839 97697 69707
70337 48987 98732 87323 73231 32315 96030 60302 30228 50223 02233 22332 23326 33267 32677 77282 72825 26032 60321 41617 78542 22031 20313 03131 31311 10287 72201 20183 01838 18384 14417 44177 17730 77308 73083 30839 08397 97697 76970 69707
03374 89873 87323 73231 32315 23152 60302 03022 02284 02233 22332 23326 33267 32677 26772 60321 03216 65854 54824 82464 18284 16178 17854 20313 03131 31311 13110 02872 01838 18384 83841 38414 84144 44177 41773 77308 73083 08397 83976 76970
33748 98732 73231 32315 23152 31529 03022 30228 22845 23326 33267 32677 26772 67728 03216 32165 21658 58548 48246 24641 46418 41828 82841 16178 61785 78542 03131 31311 13110 31102 11028 28722 22018 01838 83841 38414 84144 41441 41773 17730 77308 73083 30839 83976 39769 69707
37489 87323 32315 31529 30228 02284 28450 33267 32677 67728 77282 82529 32165 16585 85482 82464 46418 64182 18284 28416 61785 17854 85422 31311 31102 10287 87220 20183 18384 38414 41441 14417 17730 77308 73083 30839 39769 97697
74898 73231 15296 30228 22845 84502 67728 77282 72825 25292 21658 65854 58548 54824 24641 46418 64182 41828 82841 84161 16178 17854 78542 54220 11028 02872 72201 22018 01838 83841 84144 14417 44177 77308 73083 30839 08397 97697 76970
48987 52960 02284 28450 45022 33267 32677 77282 28252 52926 16585 58548 85482 48246 46418 64182 41828 18284 28416 41617 61785 78542 42203 10287 28722 20183 18384 38414 41441 14417 44177 41773 73083 08397 83976 97697 76970 69707
89873 29603 22845 84502 50223 02233 32677 26772 72825 82529 29260 92603 65854 85482 54824 82464 41828 82841 84161 16178 17854 85422 42203 20313 02872 87220 20183 01838 83841 84144 44177 41773 73083 30839 83976 39769 76970 69707
98732 96030 60302 03022 28450 84502 45022 02233 22332 26772 67728 77282 28252 25292 92603 26032 58548 85482 48246 64182 18284 28416 61785 78542 85422 22031 03131 31102 02872 28722 01838 18384 38414 41773 17730 30839 08397 39769 97697 69707
87323 29603 60302 03022 30228 84502 45022 50223 02233 22332 23326 67728 77282 72825 82529 52926 92603 60321 85482 54824 82464 41828 82841 84161 17854 85422 54220 42203 20313 31311 11028 28722 87220 20183 18384 83841 84144 41773 17730 77308 73083 08397 83976 97697
73231 96030 03022 30228 02284 50223 02233 22332 23326 33267 77282 72825 28252 25292 29260 26032 60321 03216 48246 24641 18284 82841 84161 78542 54220 42203 22031 03131 31311 13110 10287 87220 72201 01838 83841 41441 17730 77308 73083 30839 83976 76970
32315 60302 30228 02284 22845 02233 22332 23326 33267 32677 72825 82529 52926 92603 60321 03216 32165 16585 82464 46418 82841 28416 41617 61785 42203 22031 20313 31311 13110 31102 02872 72201 22018 18384 38414 14417 77308 30839 08397 39769
23152 60302 03022 22845 28450 84502 45022 22332 23326 33267 26772 77282 28252 25292 29260 26032 03216 32165 21658 65854 85482 24641 64182 28416 84161 16178 17854 78542 85422 22031 20313 03131 13110 31102 02872 28722 22018 20183 83841 84144 44177 73083 83976
31529 03022 30228 84502 45022 50223 23326 33267 32677 67728 72825 82529 52926 60321 32165 21658 16585 58548 54824 41828 41617 61785 78542 85422 54220 31311 31102 11028 28722 87220 01838 38414 41441 41773 30839 39769
15296 30228 02284 45022 50223 02233 23326 33267 77282 28252 25292 52926 29260 03216 16585 65854 85482 48246 18284 28416 16178 17854 85422 54220 42203 13110 11028 10287 87220 72201 18384 14417 17730 08397 83976 97697
52960 02284 22845 28450 50223 02233 22332 33267 32677 72825 82529 52926 29260 92603 32165 58548 54824 82464 82841 84161 54220 42203 22031 13110 02872 87220 72201 22018 17730 83976 39769 76970
29603 22845 28450 84502 50223 02233 22332 23326 32677 26772 28252 25292 29260 92603 26032 21658 24641 28416 41617 42203 22031 20313 31102 28722 72201 22018 20183 41773 77308 73083 39769 97697 69707
96030 28450 45022 02233 22332 26772 29260 92603 26032 16585 46418 16178 54220 22031 03131 13110 11028 87220 22018 01838 17730 73083 30839 97697 76970
60302 84502 45022 50223 22332 23326 26772 67728 77282 28252 25292 92603 26032 60321 65854 85482 64182 61785 78542 85422 42203 20313 31311 31102 10287 02872 28722 72201 20183 18384 77308 30839 08397 69707
03022 84502 45022 50223 02233 22332 23326 33267 26772 67728 77282 72825 28252 82529 25292 52926 26032 60321 03216 85482 54824 64182 41828 78542 85422 54220 22031 03131 13110 31102 11028 02872 28722 87220 22018 01838 83841 73083 08397 83976
30228 45022 50223 02233 23326 33267 32677 67728 77282 72825 28252 82529 25292 52926 29260 60321 03216 32165 21658 58548 54824 48246 46418 41828 18284 16178 85422 54220 42203 20313 31311 31102 11028 10287 28722 87220 72201 22018 20183 01838 38414 77308 30839 39769
02284 50223 02233 22332 33267 32677 77282 72825 28252 82529 25292 52926 29260 92603 03216 32165 16585 65854 85482 54824 48246 82464 64182 18284 82841 61785 17854 54220 42203 22031 03131 10287 02872 87220 72201 22018 20183 01838 18384 38414 84144 73083 08397
22845 02233 22332 23326 32677 26772 72825 28252 82529 25292 52926 29260 92603 26032 32165 21658 16585 65854 58548 54824 48246 82464 24641 41828 82841 28416 61785 17854 78542 42203 22031 20313 02872 28722 72201 22018 20183 01838 83841 84144 41441 30839
28450 22332 23326 26772 28252 25292 29260 26032 21658 65854 58548 85482 48246 82464 24641 46418 18284 28416 17854 78542 85422 54220 22031 20313 13110 28722 87220 22018 20183 18384 38414 41441 14417 17730 08397 76970
84502 26772 77282 28252 82529 25292 92603 26032 16585 58548 85482 54824 82464 24641 64182 82841 84161 78542 85422 54220 42203 31102 02872 28722 87220 72201 83841 84144 14417 44177 77308 83976 69707
45022 26772 67728 77282 72825 28252 82529 25292 52926 26032 60321 65854 85482 54824 48246 46418 64182 41828 41617 78542 85422 54220 42203 22031 31102 11028 02872 28722 87220 22018 41441 44177 41773 73083
50223 67728 77282 72825 28252 82529 25292 52926 29260 92603 60321 03216 58548 54824 48246 41828 18284 85422 54220 42203 20313 11028 10287 28722 87220 72201 20183 41773 73083 30839
02233 77282 72825 28252 82529 25292 52926 29260 92603 26032 03216 32165 48246 82464 18284 82841 54220 42203 22031 20313 03131 10287 02872 87220 72201 22018 20183 01838 41773 17730 73083 30839 08397
22332 77282 72825 28252 82529 25292 52926 29260 92603 26032 60321 32165 21658 85482 82464 24641 64182 82841 28416 78542 85422 42203 22031 20313 03131 31311 31102 02872 28722 72201 22018 20183 01838 18384 17730 77308 30839 08397
23326 72825 28252 82529 25292 52926 29260 26032 60321 03216 21658 54824 48246 24641 41828 28416 85422 54220 22031 20313 03131 31311 13110 11028 28722 87220 22018 20183 18384 83841 77308 73083 08397 83976
33267 28252 25292 29260 03216 32165 48246 82464 18284 84161 41617 54220 42203 03131 31311 13110 31102 10287 87220 72201 83841 38414 14417 44177 73083 30839 08397 83976 39769 97697 69707
32677 82529 52926 92603 32165 21658 82464 24641 82841 41617 16178 42203 22031 31311 31102 10287 02872 72201 22018 38414 14417 44177 41773 30839 08397 83976 39769 97697 76970 69707
26772 25292 29260 26032 21658 16585 85482 24641 46418 64182 28416 16178 61785 78542 85422 22031 20313 31102 02872 28722 22018 20183 44177 41773 17730 83976 39769 76970 69707
67728 52926 60321 21658 65854 58548 54824 46418 64182 41828 16178 61785 17854 85422 54220 11028 28722 87220 22018 01838 41773 17730 77308 39769 97697 69707
77282 29260 26032 03216 16585 85482 48246 64182 18284 61785 17854 78542 85422 54220 42203 31102 10287 02872 28722 87220 72201 20183 18384 17730 77308 73083 97697 76970
72825 92603 60321 32165 16585 65854 54824 82464 41828 82841 61785 17854 78542 85422 54220 42203 22031 11028 02872 28722 87220 72201 22018 01838 83841 77308 73083 30839 76970
28252 26032 03216 21658 65854 58548 85482 48246 24641 64182 18284 28416 17854 78542 85422 54220 42203 22031 20313 31102 10287 02872 28722 87220 72201 22018 20183 18384 38414 08397
82529 60321 32165 16585 58548 85482 54824 82464 41828 82841 84161 78542 85422 54220 42203 22031 11028 02872 28722 87220 72201 22018 83841 84144 30839 83976 39769
25292 03216 21658 65854 85482 48246 24641 64182 18284 28416 78542 85422 54220 42203 22031 20313 31102 10287 02872 28722 87220 72201 22018 20183 08397 97697
52926 03216 32165 58548 54824 48246 82464 41828 82841 28416 85422 54220 42203 22031 11028 02872 28722 87220 72201 22018 83976 76970
29260 32165 21658 48246 82464 24641 18284 28416 84161 54220 42203 22031 20313 13110 10287 28722 87220 72201 22018 20183 17730 39769 76970 69707
92603 21658 82464 24641 82841 41617 42203 22031 20313 31102 02872 72201 22018 20183 41773 77308 73083 97697 69707
26032 16585 85482 24641 46418 64182 28416 16178 78542 85422 22031 20313 03131 31102 11028 02872 28722 22018 20183 01838 17730 73083 30839 76970
60321 65854 54824 24641 64182 41828 82841 84161 61785 85422 54220 22031 20313 03131 31311 11028 10287 28722 87220 72201 20183 18384 83841 41441 77308 30839 08397 69707
03216 48246 46418 18284 28416 41617 54220 42203 20313 03131 31311 13110 10287 02872 87220 72201 22018 01838 83841 38414 14417 73083 08397 83976
32165 82464 64182 82841 84161 16178 61785 42203 22031 03131 31311 13110 31102 02872 72201 22018 20183 38414 84144 44177 30839 39769
21658 24641 46418 41828 28416 41617 16178 61785 17854 22031 20313 31311 31102 11028 28722 22018 20183 01838 41441 41773 77308 97697
16585 46418 64182 18284 16178 61785 17854 78542 13110 11028 10287 20183 18384 14417 17730 73083 76970
65854 82464 64182 41828 18284 82841 61785 17854 85422 02872 01838 18384 83841 38414 84144 30839 69707
58548 24641 46418 41828 18284 82841 28416 16178 78542 54220 11028 28722 22018 01838 18384 83841 38414 84144 41441 77308 08397
85482 46418 64182 18284 82841 28416 84161 61785 78542 85422 31102 10287 02872 28722 87220 20183 18384 83841 38414 84144 41441 14417 73083 83976
54824 64182 41828 18284 82841 84161 17854 85422 54220 11028 02872 28722 87220 01838 18384 83841 38414 84144 14417 44177 30839
48246 41828 18284 82841 28416 41617 78542 54220 42203 10287 28722 87220 72201 18384 83841 38414 84144 41441 44177 41773 08397 83976
82464 18284 82841 28416 84161 17854 85422 42203 22031 02872 87220 72201 22018 18384 83841 38414 84144 41441 14417 83976 39769
24641 82841 28416 84161 41617 78542 54220 22031 20313 03131 31311 28722 72201 22018 20183 83841 84144 41441 14417 44177 97697
46418 28416 41617 16178 85422 42203 20313 31311 13110 11028 22018 01838 38414 41441 14417 44177 41773 77308 76970
64182 84161 16178 61785 78542 85422 54220 03131 13110 31102 10287 02872 28722 20183 18384 84144 14417 44177 73083 69707
41828 41617 16178 61785 17854 85422 54220 42203 31311 31102 11028 02872 28722 87220 22018 01838 83841 41441 44177 41773 77308 30839
18284 16178 61785 17854 78542 54220 42203 13110 11028 10287 28722 87220 72201 20183 18384 38414 84144 14417 17730 73083 08397
82841 17854 78542 85422 42203 22031 03131 31311 02872 87220 72201 22018 01838 83841 84144 41441 30839 83976
28416 78542 85422 22031 20313 31311 13110 28722 22018 20183 18384 38414 41441 14417 08397 83976
84161 85422 54220 22031 03131 31311 13110 31102 87220 72201 20183 83841 84144 41441 14417 44177 83976 39769
41617 42203 20313 31311 13110 31102 11028 10287 22018 01838 38414 41441 14417 44177 41773 08397 97697 69707
16178 03131 13110 31102 11028 10287 02872 22018 20183 01838 18384 84144 14417 44177 41773 17730 77308 83976 76970
61785 31311 31102 11028 10287 28722 20183 01838 18384 41441 41773 17730 73083 39769 69707
17854 13110 11028 10287 02872 87220 01838 18384 83841 38414 84144 14417 17730 77308 30839 97697
78542 31102 02872 28722 72201 18384 83841 38414 84144 41441 77308 73083 08397 76970
85422 31102 11028 02872 28722 87220 83841 38414 84144 41441 14417 83976
54220 13110 11028 10287 28722 87220 72201 84144 14417 44177 17730 76970
42203 31102 10287 02872 87220 72201 22018 20183 41441 44177 41773 77308 73083 69707
22031 11028 02872 28722 72201 22018 20183 01838 83841 41441 17730 73083 30839
20313 10287 28722 22018 20183 18384 38414 14417 41773 77308 73083 30839 08397
03131 02872 72201 20183 01838 83841 84144 41441 44177 17730 73083 30839 08397 83976
31311 72201 22018 01838 18384 83841 38414 41441 14417 41773 77308 30839 08397 39769
13110 87220 22018 20183 18384 83841 38414 84144 14417 44177 17730 73083 83976 76970
31102 72201 20183 01838 38414 84144 41441 44177 41773 77308 30839 39769 69707
11028 22018 01838 18384 41441 14417 41773 17730 77308 73083
10287 20183 18384 14417 44177 17730 73083 30839 08397 97697 69707
02872 01838 83841 44177 41773 30839 08397 83976 76970
28722 18384 38414 41773 17730 08397 39769 69707
87220 83841 84144 17730 77308 83976 97697 76970
72201 83841 41441 77308 73083 76970 69707
22018 38414 14417 77308 73083
20183 84144 44177 41773 73083 30839
01838 41441 41773 17730 77308 30839 08397
18384 14417 17730 77308 73083 08397
83841 73083 30839 83976
38414 30839 08397 39769
84144 83976
14417 08397 97697 69707
44177 08397 83976 97697 76970 69707
41773 83976 39769 76970 69707
17730 39769 97697 76970 69707
77308 97697 76970 69707
73083 76970
08397 69707
<------------Next-300-Signals------------>
54876 29838 83873 87373 73827 38271 25879 58798 79881 98812 54520 52057 20572 57228 22810 10878 87837 78373 54058 05838 58389 83897 38975 53029 92072 21306 06273 73170 70475 04756 75673 56735 51850 85071 50714 14370 37078 07893 78936 62086 20862 12574 57434 74343 34324 24505 50580 05807 58076 39826 26436 64360 34171 12446 24467 44673 14441 44416 44164 64973 01271 12716 61833 83316 69286 92868 86852 52272 24580 45805 58055 55386 53862 59424 94243 24331 35126 51264 26436 64369 93974 74524 52471 24716 11016 01677 16771 90881 08811 35377 53773 35570 55709 57092 70926 26279 27906 06906 90646 64625 54023 23556 55612 56124 24205 05273 52734 34884 48845 84504 45046 50464 04648 64873 87306 24424 44248 24871
48761 98387 38737 73738 38271 82712 58798 79881 98812 88125 45205 05722 72281 28108 08783 78373 83735 40583 58389 38975 89753 20721 13062 62731 31704 04756 47567 56735 67351 18507 85071 50714 43707 70789 78936 89362 20862 08621 25743 43432 43245 45058 58076 80763 98264 64360 43601 12341 34171 41712 24467 44673 46731 14441 44416 44164 41649 49730 97301 01271 12716 27161 18331 33169 92868 28685 68522 22724 45805 58055 53862 38620 42433 24331 43313 31351 51264 64369 43693 39745 45247 52471 24716 47160 71601 16011 01101 10167 16771 67713 90881 08811 88119 53773 37735 55709 09262 62790 79069 69064 06462 46254 40235 35561 42052 52734 48845 88450 45046 50464 46487 48730 73063 44248 42487 24871 48712 71251
87612 83873 87373 37382 82712 27125 87988 98812 88125 81254 25452 20572 05722 57228 22810 81087 87837 83735 37354 83897 89753 97530 75302 30292 29292 92072 07213 13062 30627 27317 17047 47567 75673 67351 73518 85071 50714 07143 37078 07893 89362 93620 20862 08621 86212 57434 43432 80763 07639 63982 82643 43601 36012 23417 41712 17124 44673 67314 44416 41649 97301 73012 12716 27161 71618 83316 31692 28685 86852 68522 85227 52272 27245 80553 53862 38620 86202 25942 43313 13512 12643 43693 97452 24716 47160 71601 16011 60110 11016 01677 67713 77133 08811 88119 81193 37735 77355 57092 09262 92627 27906 90690 90646 06462 64625 25402 55612 61242 42052 27348 88450 84504 04648 87306 30632 32442 48712 87125 12512
76129 73738 73827 27125 71258 25879 79881 88125 54520 05722 57228 72281 28108 78373 73540 58389 75302 53029 02929 92920 20721 72130 30627 06273 73170 70475 75673 56735 73518 35185 07143 71437 70789 78936 93620 36208 08621 86212 62125 74343 34324 07639 76398 39826 26436 36012 60123 34171 17124 71244 46731 73144 44164 41649 16497 73012 30127 27161 71618 16183 33169 16928 86852 68522 85227 22724 72458 38620 86202 62025 20259 59424 33135 35126 26436 64369 36939 74524 47160 71601 16011 60110 01101 10167 16771 77133 71339 88119 81193 77355 73557 55709 70926 92627 26279 79069 06906 06462 64625 46254 54023 56124 12420 20527 73488 46487 73063 06324 24424 87125 71251
61298 73738 38271 71258 58798 87988 81254 45205 57228 72281 28108 81087 10878 54058 05838 83897 30292 29292 29207 07213 21306 06273 62731 31704 67351 73518 51850 71437 37078 07893 36208 62086 86212 62125 21257 43245 45058 76398 63982 98264 64360 60123 01234 41712 71244 67314 31444 41649 16497 64973 01271 71618 61833 31692 16928 69286 92868 68522 85227 52272 27245 72458 05538 86202 62025 20259 02594 94243 31351 51264 64369 43693 69397 45247 71601 60110 01101 11016 01677 67713 71339 13390 33908 39088 81193 11935 57092 09262 26279 62790 90690 69064 64625 46254 62540 40235 61242 24205 05273 27348 73488 04648 64873 63244 44248 71251
12983 87373 37382 82712 12587 87988 79881 12545 52057 72281 22810 81087 10878 08783 78373 40583 58389 38975 89753 02929 92920 92072 07213 72130 13062 06273 62731 17047 75673 35185 18507 07143 14370 70789 07893 78936 62086 62125 12574 25743 74343 32450 50580 80763 63982 82643 60123 12341 17124 12446 44673 14441 16497 64973 12716 16183 61833 18331 16928 69286 92868 28685 52272 22724 72458 24580 80553 55386 62025 02594 25942 94243 42433 43313 13512 12643 43693 36939 93974 52471 16011 11016 10167 16771 67713 77133 13390 33908 39088 90881 81193 11935 19353 53773 70926 92627 62790 27906 06906 62540 54023 02355 12420 42052 05273 52734 73488 34884 46487 64873 73063 32442 42487 12512
29838 73738 73827 27125 71258 25879 58798 87988 79881 98812 25452 20572 57228 22810 28108 10878 87837 83735 54058 05838 83897 89753 97530 29292 29207 20721 72130 21306 62731 27317 56735 73518 51850 71437 37078 07893 78936 89362 36208 20862 21257 25743 57434 43432 24505 45058 05807 07639 76398 39826 26436 01234 23417 24467 46731 49730 27161 71618 61833 18331 16928 69286 92868 28685 86852 22724 27245 72458 24580 45805 05538 53862 20259 25942 59424 42433 24331 33135 26436 36939 69397 39745 24716 77133 71339 33908 39088 90881 08811 11935 19353 93537 37735 09262 26279 27906 79069 69064 25402 40235 23556 24205 20527 52734 27348 73488 34884 48845 04648 64873 48730 30632 24424 44248 24871
98387 37382 73827 38271 12587 58798 87988 79881 98812 88125 52057 72281 28108 81087 08783 87837 78373 37354 40583 58389 83897 38975 97530 75302 92920 29207 92072 21306 30627 27317 17047 47567 67351 35185 18507 71437 14370 43707 70789 78936 89362 93620 62086 08621 21257 74343 34324 50580 05807 58076 76398 63982 98264 64360 12341 23417 24467 67314 16497 97301 30127 16183 18331 83316 69286 92868 28685 68522 85227 24580 58055 55386 38620 94243 24331 43313 31351 64369 69397 93974 97452 45247 10167 01677 71339 13390 39088 90881 08811 88119 19353 93537 35377 77355 73557 92627 90690 90646 02355 20527 27348 73488 34884 48845 88450 46487 48730 87306 06324 42487 48712
83873 73827 38271 82712 25879 87988 79881 98812 88125 81254 20572 22810 81087 10878 08783 87837 78373 83735 73540 40583 05838 83897 38975 89753 53029 92072 07213 13062 06273 73170 70475 75673 73518 51850 85071 07143 14370 43707 37078 07893 89362 93620 20862 86212 12574 25743 74343 43432 43245 05807 58076 80763 63982 39826 82643 43601 60123 23417 34171 44673 73144 64973 73012 01271 16183 61833 83316 33169 92868 86852 85227 52272 45805 80553 53862 86202 94243 42433 43313 33135 13512 12643 43693 93974 52471 01677 16771 67713 77133 13390 33908 90881 08811 88119 81193 19353 93537 35377 53773 73557 35570 26279 54023 23556 05273 73488 34884 48845 88450 84504 64873 87306 73063 63244 24871 87125
38737 38271 82712 12587 58798 98812 88125 52057 05722 28108 81087 08783 87837 78373 83735 37354 35405 05838 58389 83897 38975 89753 97530 30292 29207 20721 72130 30627 62731 27317 31704 17047 04756 47567 56735 35185 18507 50714 71437 43707 37078 70789 78936 36208 08621 21257 25743 57434 43432 34324 32450 05807 58076 80763 07639 39826 98264 26436 36012 01234 23417 34171 41712 24467 46731 31444 16497 49730 30127 12716 61833 18331 33169 31692 28685 68522 85227 22724 58055 05538 38620 42433 24331 33135 31351 35126 26436 36939 69397 39745 45247 24716 10167 01677 16771 67713 77133 71339 33908 39088 08811 88119 11935 93537 35377 53773 37735 73557 35570 55709 92627 62790 40235 35561 20527 52734 34884 48845 88450 46487 48730 30632 32442 42487 48712
87373 82712 27125 25879 87988 88125 81254 20572 57228 81087 10878 08783 87837 78373 83735 37354 40583 58389 83897 38975 89753 97530 75302 92072 07213 21306 06273 27317 73170 17047 70475 47567 75673 67351 85071 07143 14370 37078 07893 89362 86212 12574 25743 57434 74343 34324 58076 80763 07639 76398 82643 64360 60123 12341 34171 17124 44673 67314 64973 97301 01271 27161 16183 61833 18331 83316 86852 85227 52272 27245 80553 55386 86202 94243 42433 24331 43313 31351 12643 64369 43693 69397 93974 97452 52471 47160 01677 16771 67713 77133 71339 13390 88119 81193 19353 35377 53773 37735 77355 35570 57092 26279 27906 54023 02355 05273 27348 88450 84504 64873 87306 73063 06324 24871 87125
73738 71258 58798 87988 79881 05722 57228 72281 28108 10878 08783 87837 78373 83735 73540 54058 05838 83897 89753 97530 75302 53029 20721 72130 13062 62731 73170 31704 70475 04756 75673 56735 73518 50714 71437 43707 37078 70789 78936 93620 36208 25743 57434 74343 43432 43245 45058 80763 07639 76398 63982 26436 43601 01234 23417 41712 71244 46731 73144 49730 73012 12716 71618 61833 18331 83316 33169 16928 92868 22724 72458 05538 53862 42433 24331 43313 33135 13512 26436 43693 36939 93974 39745 74524 24716 71601 16771 67713 77133 71339 13390 33908 39088 11935 93537 53773 37735 77355 73557 55709 70926 62790 79069 40235 23556 52734 27348 73488 04648 48730 73063 30632 63244 44248 48712 71251
37382 12587 87988 79881 98812 25452 20572 05722 57228 72281 81087 08783 87837 78373 37354 35405 40583 58389 38975 97530 75302 30292 29292 92072 07213 21306 13062 30627 27317 31704 17047 47567 67351 35185 07143 14370 37078 70789 07893 89362 36208 62086 20862 86212 57434 74343 43432 34324 32450 50580 07639 76398 63982 39826 64360 36012 12341 34171 41712 17124 67314 31444 97301 73012 30127 27161 16183 18331 83316 33169 31692 69286 28685 86852 68522 52272 27245 24580 55386 53862 38620 86202 25942 24331 43313 33135 31351 13512 35126 64369 36939 69397 39745 97452 47160 67713 77133 71339 13390 33908 39088 90881 19353 35377 37735 77355 35570 57092 09262 27906 06462 25402 02355 35561 55612 61242 42052 27348 73488 34884 46487 87306 30632 06324 32442 42487 48712 87125 12512
73827 12587 25879 79881 98812 88125 54520 52057 05722 57228 72281 22810 81087 10878 87837 78373 83735 73540 05838 83897 75302 53029 02929 92920 29207 20721 72130 13062 30627 27317 73170 17047 70475 47567 75673 73518 51850 18507 71437 43707 70789 07893 78936 93620 20862 08621 62125 21257 74343 43432 34324 43245 05807 76398 63982 39826 43601 60123 23417 17124 71244 24467 73144 16497 73012 30127 71618 61833 83316 33169 16928 92868 86852 68522 85227 22724 72458 45805 53862 38620 62025 59424 43313 33135 13512 35126 43693 69397 93974 74524 45247 71601 10167 01677 77133 71339 13390 33908 90881 08811 93537 35377 53773 77355 73557 70926 92627 79069 64625 54023 23556 56124 12420 20527 73488 34884 48845 46487 64873 73063 06324 63244 24424 42487 24871 87125 71251
38271 25879 58798 79881 98812 88125 81254 45205 20572 57228 72281 28108 10878 08783 78373 37354 35405 58389 38975 30292 29292 29207 92072 20721 07213 30627 06273 62731 73170 31704 70475 75673 67351 35185 18507 85071 14370 37078 78936 36208 08621 86212 21257 12574 34324 43245 32450 58076 39826 98264 43601 36012 01234 12341 34171 71244 44673 46731 31444 14441 64973 97301 30127 01271 27161 18331 33169 31692 69286 28685 68522 85227 52272 27245 58055 38620 86202 20259 94243 24331 33135 31351 35126 51264 36939 93974 39745 45247 52471 71601 16011 01101 01677 16771 33908 39088 90881 08811 88119 35377 53773 37735 35570 09262 26279 46254 40235 35561 61242 24205 05273 34884 48845 88450 64873 48730 30632 63244 32442 44248 24871 48712 71251
82712 58798 87988 98812 88125 81254 12545 25452 52057 20572 05722 72281 22810 81087 08783 87837 83735 83897 89753 75302 30292 02929 29292 92920 92072 20721 07213 72130 13062 62731 27317 31704 04756 56735 73518 85071 50714 43707 70789 89362 62086 20862 86212 62125 12574 25743 43432 32450 80763 63982 82643 36012 12341 23417 41712 12446 46731 67314 44416 49730 73012 12716 71618 83316 31692 92868 86852 68522 85227 52272 22724 72458 80553 53862 86202 62025 02594 25942 42433 43313 13512 12643 39745 97452 52471 24716 16011 60110 11016 16771 67713 08811 88119 81193 53773 37735 55709 57092 09262 92627 62790 06462 62540 25402 02355 55612 61242 12420 42052 52734 88450 84504 48730 87306 30632 32442 42487 48712 87125 12512
27125 87988 88125 12545 25452 54520 45205 20572 05722 57228 22810 28108 87837 83735 37354 35405 38975 97530 53029 02929 29292 92920 29207 20721 07213 72130 21306 30627 27317 73170 17047 70475 47567 56735 67351 35185 07143 37078 07893 93620 20862 08621 62125 21257 25743 57434 34324 43245 24505 07639 39826 26436 60123 23417 34171 17124 24467 67314 73144 44164 97301 30127 27161 16183 33169 16928 28685 68522 85227 22724 27245 24580 45805 58055 38620 62025 20259 25942 59424 24331 33135 35126 26436 39745 97452 74524 24716 47160 60110 01101 10167 67713 77133 88119 81193 11935 37735 77355 57092 70926 92627 26279 27906 64625 25402 54023 40235 02355 23556 56124 12420 24205 20527 27348 48845 87306 06324 24424 24871 87125
71258 79881 81254 25452 45205 52057 57228 72281 28108 81087 10878 78373 37354 73540 54058 05838 89753 75302 30292 29292 29207 07213 72130 21306 06273 73170 31704 70475 04756 75673 67351 73518 51850 71437 37078 70789 78936 36208 86212 21257 74343 43245 32450 45058 76398 98264 01234 41712 71244 73144 31444 41649 73012 01271 71618 61833 31692 16928 69286 92868 86852 85227 52272 27245 72458 58055 80553 05538 86202 20259 94243 31351 51264 97452 74524 45247 71601 01101 11016 01677 77133 71339 33908 39088 81193 11935 19353 77355 73557 70926 09262 26279 79069 46254 40235 02355 23556 61242 24205 42052 05273 27348 73488 88450 04648 73063 63244 44248 71251
12587 12545 54520 52057 20572 72281 22810 81087 10878 08783 87837 73540 40583 58389 83897 97530 02929 92920 29207 92072 72130 13062 30627 62731 27317 17047 47567 73518 35185 18507 71437 14370 43707 70789 62086 62125 21257 12574 32450 24505 50580 05807 63982 82643 12341 23417 17124 12446 24467 14441 16497 30127 12716 16183 18331 16928 69286 92868 28685 68522 85227 52272 22724 72458 24580 80553 05538 55386 62025 02594 42433 13512 12643 69397 74524 45247 52471 16011 11016 10167 01677 16771 13390 39088 90881 11935 19353 93537 35377 73557 35570 92627 62790 62540 02355 23556 35561 12420 42052 20527 52734 73488 34884 84504 46487 32442 42487 12512
25879 25452 45205 20572 05722 22810 28108 10878 87837 78373 35405 05838 58389 83897 38975 75302 53029 02929 29292 29207 92072 20721 21306 06273 27317 73170 70475 75673 35185 51850 85071 14370 37078 70789 07893 20862 21257 12574 25743 24505 45058 05807 58076 07639 39826 26436 23417 34171 24467 44673 41649 64973 01271 27161 61833 33169 92868 28685 86852 85227 52272 22724 27245 24580 45805 05538 55386 53862 20259 25942 24331 35126 26436 64369 36939 93974 45247 52471 24716 01677 16771 71339 90881 08811 88119 35377 53773 35570 55709 26279 27906 79069 25402 23556 35561 55612 24205 20527 05273 27348 34884 48845 45046 64873 24424 24871
58798 54520 52057 05722 57228 28108 10878 08783 78373 83735 54058 05838 58389 83897 38975 89753 53029 30292 29292 20721 62731 31704 04756 56735 73518 51850 18507 50714 43707 37078 70789 07893 78936 36208 08621 25743 57434 45058 50580 58076 80763 76398 98264 41712 46731 16497 49730 12716 71618 18331 31692 16928 92868 28685 68522 52272 22724 72458 58055 05538 55386 53862 38620 02594 59424 51264 43693 69397 39745 52471 24716 16771 67713 13390 33908 39088 08811 88119 81193 53773 37735 55709 57092 62790 90690 54023 55612 56124 52734 27348 73488 48845 88450 50464 04648 48730 44248 48712
87988 57228 72281 28108 81087 10878 08783 87837 83735 37354 54058 40583 05838 58389 83897 38975 89753 97530 02929 92920 07213 27317 17047 47567 67351 73518 35185 85071 07143 37078 70789 07893 78936 89362 36208 62086 86212 57434 45058 50580 80763 07639 76398 63982 82643 17124 67314 64973 97301 27161 71618 16183 83316 16928 69286 92868 28685 86852 85227 27245 72458 24580 80553 05538 55386 86202 25942 36939 93974 97452 47160 67713 77133 33908 39088 90881 88119 81193 11935 37735 77355 57092 70926 27906 06906 27348 73488 34884 88450 84504 04648 46487 87306 44248 42487 87125
