09 09 09 
90 90 
06 06 
66 66 
69 69 69 69 69 
95 95 95 
55 55 55 
57 57 
74 74 
49 49 49 
95 95 
77 77 77 77 
75 75 75 75 
50 50 50 50 
02 02 02 02 
29 29 29 
39 39 39 39 
98 98 98 
87 87 87 87 
78 78 
86 86 86 
62 62 
20 20 20 20 20 20 
00 00 
01 01 01 01 01 01 
19 19 19 19 
91 91 91 91 
11 11 11 11 11 11 11 
15 15 15 15 15 15 
50 50 50 
09 09 
96 96 96 96 
64 64 64 64 64 64 64 64 
49 49 
92 92 92 92 92 
28 28 28 28 28 28 
83 83 83 83 
34 34 34 34 
43 43 43 
32 32 32 32 32 
26 26 26 
69 69 69 69 
92 92 92 92 
76 76 
60 60 60 60 
01 01 01 01 01 
11 11 11 11 11 
11 11 11 11 11 
19 19 19 
92 92 92 
21 21 21 21 
11 11 11 11 
14 14 14 
47 47 47 
70 70 70 70 
01 01 01 01 
19 19 
91 91 91 
12 12 
21 21 21 
15 15 15 15 15 
54 54 54 54 54 54 
44 44 44 44 44 44 44 
40 40 
07 07 07 07 
71 71 
11 11 11 
20 20 20 20 20 
59 59 
92 92 
25 25 
54 54 54 54 54 
43 43 
37 37 
75 75 75 
55 55 
50 50 
91 91 
15 15 15 15 
97 97 97 97 
72 72 72 
22 22 22 22 22 22 
22 22 22 22 22 22 
21 21 
18 18 18 
88 88 
89 89 
58 58 
14 14 
44 44 44 44 44 44 
46 46 46 46 46 46 46 
64 64 64 64 64 64 64 
46 46 46 46 46 46 
67 67 67 
77 77 77 
70 70 70 
07 07 07 
73 73 73 73 
33 33 33 33 
32 32 32 32 
22 22 22 22 22 
20 20 20 20 
08 08 
87 87 87 
73 73 73 
30 30 30 
04 04 
47 47 
75 75 
64 64 64 64 64 64 
41 41 41 41 41 
96 96 96 
86 86 
34 34 34 
11 11 
10 10 10 
01 01 01 
15 15 15 
53 53 
34 34 
33 33 33 
44 44 44 44 
44 44 44 44 
42 42 42 
23 23 23 
39 39 39 
98 98 
64 64 64 64 64 
46 46 46 46 46 
64 64 64 64 
44 44 44 
46 46 46 46 
60 60 60 
07 07 
97 97 97 
54 54 54 54 
46 46 46 
69 69 69 
10 10 
64 64 64 
44 44 
01 01 
15 15 
64 64 
45 45 
54 54 54 
46 46 
69 69 
03 03 03 03 03 
39 39 
96 96 
20 20 20 
42 42 
28 28 28 28 28 
83 83 83 
31 31 31 31 
16 16 16 
67 67 
70 70 
03 03 03 03 
33 33 
48 48 
87 87 
73 73 
32 32 32 
23 23 
31 31 31 
52 52 
29 29 
60 60 
03 03 03 
30 30 
02 02 02 
22 22 22 22 
28 28 28 28 
84 84 84 
02 02 
22 22 22 
32 32 
26 26 
77 77 
72 72 
28 28 28 
82 82 82 
03 03 
16 16 
85 85 
54 54 
82 82 
41 41 41 41 
18 18 
28 28 
84 84 
41 41 41 
17 17 
22 22 
20 20 
31 31 
83 83 
41 41 
97 97 
<------------Next-300-Signals------------>
54 54 54 54 
48 48 48 48 
87 87 87 87 87 87 
76 76 
61 61 61 
12 12 12 12 12 12 12 12 12 12 12 
29 29 29 
98 98 98 
83 83 83 83 
38 38 38 38 
87 87 87 87 87 
73 73 73 73 73 73 73 73 73 73 
37 37 37 37 
73 73 73 73 73 73 73 73 73 
38 38 38 
82 82 
27 27 27 27 27 27 
71 71 71 71 71 71 71 
12 12 12 12 12 12 12 12 12 12 
25 25 25 25 25 25 
58 58 58 58 
87 87 87 87 
79 79 
98 98 
88 88 88 
81 81 81 
12 12 12 12 12 12 12 12 12 
25 25 25 25 25 
54 54 54 
45 45 45 45 45 
52 52 52 52 
20 20 20 20 20 
05 05 05 05 05 
57 57 57 
72 72 72 
22 22 
28 28 
81 81 
10 10 
08 08 08 
87 87 87 
78 78 
83 83 83 
37 37 37 
73 73 73 73 73 73 73 73 
35 35 35 35 35 35 
54 54 
40 40 
05 05 05 05 
58 58 58 
83 83 
38 38 
89 89 
97 97 97 
75 75 
53 53 53 
30 30 30 30 
02 02 02 
29 29 
92 92 92 92 
92 92 92 
20 20 20 20 
07 07 07 07 
72 72 
21 21 
13 13 13 
30 30 30 
06 06 06 06 
62 62 62 62 62 62 
27 27 27 27 27 
73 73 73 73 73 73 73 
31 31 31 31 
17 17 
70 70 70 
04 04 
47 47 
56 56 
67 67 67 
73 73 73 73 73 73 
35 35 35 35 35 
51 51 51 
18 18 
85 85 
50 50 50 
07 07 07 
71 71 71 71 71 71 
14 14 
43 43 43 43 43 43 
37 37 
70 70 
07 07 
93 93 93 
36 36 36 
62 62 62 62 62 
20 20 20 
08 08 
86 86 86 
62 62 62 62 
12 12 12 12 12 12 12 12 
25 25 25 25 
57 57 
74 74 
43 43 43 43 43 
34 34 34 
43 43 43 43 
32 32 
24 24 24 24 24 24 24 24 
45 45 45 45 
50 50 
05 05 05 
58 58 
80 80 
63 63 
39 39 39 
26 26 26 
64 64 64 64 64 
43 43 43 
36 36 
60 60 
01 01 01 01 
12 12 12 12 12 12 12 
23 23 
34 34 
41 41 
71 71 71 71 71 
12 12 12 12 12 12 
24 24 24 24 24 24 24 
44 44 44 44 
46 46 46 
67 67 
73 73 73 73 73 
31 31 31 
44 44 
44 44 
16 16 16 16 16 
64 64 64 64 
97 97 
73 73 73 73 
30 30 
01 01 01 
12 12 12 12 12 
27 27 27 27 
71 71 71 71 
16 16 16 16 
61 61 
33 33 33 
31 31 
16 16 16 
69 69 69 
92 92 
86 86 
52 52 52 
27 27 27 
24 24 24 24 24 24 
45 45 45 
05 05 
55 55 55 
53 53 
62 62 62 
20 20 
02 02 
25 25 25 
42 42 42 
24 24 24 24 24 
43 43 
33 33 
13 13 
35 35 35 35 
51 51 
12 12 12 12 
26 26 
64 64 64 
69 69 
93 93 
39 39 
45 45 
52 52 
24 24 24 24 
71 71 71 
16 16 
01 01 
11 11 
77 77 
71 71 
90 90 90 
88 88 
35 35 35 
73 73 73 
35 35 
55 55 
62 62 
27 27 
90 90 
06 06 06 
06 06 
64 64 
46 46 
25 25 
12 12 12 
24 24 24 
42 42 
73 73 
48 48 48 
48 48 
87 87 
24 24 
12 12 
<------------Next-300-Signals------------>
25 25 25 25 25 
56 56 56 
64 64 64 
49 49 49 
92 92 92 92 92 
23 23 23 23 
32 32 32 32 
25 25 25 25 
52 52 52 
25 25 25 
50 50 50 
02 02 02 
21 21 21 21 
18 18 18 18 18 
81 81 81 
17 17 
72 72 72 72 72 
27 27 27 27 27 
73 73 73 
37 37 37 37 37 37 37 37 
74 74 74 74 
45 45 
53 53 53 
33 33 33 33 33 33 33 
33 33 33 33 33 33 33 
34 34 34 34 
40 40 
04 04 04 04 04 
46 46 
64 64 
44 44 44 44 
14 14 14 
43 43 43 43 43 43 43 43 
33 33 33 33 33 33 
38 38 
85 85 85 
51 51 51 
16 16 16 16 16 16 
62 62 62 62 
23 23 23 
69 69 69 69 
98 98 98 
80 80 80 80 80 
03 03 03 03 
31 31 31 31 31 31 
18 18 18 18 
43 43 43 43 43 43 43 
34 34 34 
47 47 47 
70 70 70 70 70 70 70 
04 04 04 04 
44 44 44 
48 48 48 
86 86 
62 62 62 
22 22 22 22 22 22 22 22 
29 29 29 29 29 
98 98 
80 80 80 80 
00 00 00 
08 08 
87 87 
72 72 72 72 
22 22 22 22 22 22 22 
29 29 29 29 
92 92 92 92 
22 22 22 22 22 22 
27 27 27 27 
72 72 72 
29 29 29 
93 93 93 93 93 
37 37 37 37 37 37 37 
78 78 78 
89 89 89 89 
92 92 92 
27 27 27 
70 70 70 70 70 70 
01 01 01 01 
10 10 
07 07 07 
70 70 70 70 70 
09 09 09 
95 95 
55 55 55 
58 58 58 58 
89 89 89 
99 99 
91 91 91 91 
19 19 19 19 
94 94 94 94 
49 49 
90 90 90 
07 07 
77 77 77 77 
70 70 70 70 
01 01 01 
16 16 16 16 16 
61 61 61 
34 34 
77 77 77 
73 73 
31 31 31 31 31 
19 19 19 
94 94 94 
94 94 
43 43 43 43 43 43 
35 35 35 
59 59 59 
62 62 
21 21 21 
14 14 
43 43 43 43 43 
52 52 
20 20 20 20 
03 03 03 
37 37 37 37 37 37 
77 77 
70 70 70 
05 05 05 
50 50 
04 04 04 
43 43 43 43 
37 37 37 37 37 
74 74 74 
20 20 20 
01 01 
18 18 18 
89 89 
90 90 
02 02 
22 22 22 22 
22 22 22 22 
21 21 
12 12 12 
22 22 22 
29 29 
91 91 91 
18 18 
85 85 
51 51 
11 11 11 
78 78 
81 81 
82 82 
27 27 
72 72 
22 22 
92 92 
25 25 
59 59 
93 93 93 93 
33 33 33 33 33 
35 35 
58 58 58 
80 80 80 
23 23 
37 37 37 37 
74 74 
48 48 
19 19 
93 93 93 
53 53 
32 32 32 
11 11 
69 69 69 
80 80 
00 00 
16 16 16 16 
20 20 
09 09 
91 91 
15 15 15 
33 33 33 33 
37 37 37 
56 56 
61 61 
15 15 
43 43 43 
03 03 
33 33 33 
32 32 
79 79 
31 31 31 31 
12 12 
16 16 16 
69 69 
97 97 
47 47 
93 93 
33 33 
31 31 31 
16 16 
65 65 
58 58 
04 04 
43 43 
37 37 
31 31 
05 05 
70 70 
26 26 
<------------Next-300-Signals------------>
62 62 62 62 
22 22 
20 20 
09 09 
95 95 95 95 
54 54 54 54 54 
40 40 40 
07 07 07 07 07 07 07 07 
70 70 70 
06 06 06 
68 68 
85 85 85 85 85 
56 56 56 56 56 
61 61 61 61 61 61 
48 48 
80 80 80 
35 35 35 35 
79 79 79 
98 98 98 98 98 
89 89 89 89 
92 92 
27 27 
75 75 75 75 75 
59 59 59 59 
90 90 90 90 
08 08 08 08 08 
85 85 85 85 
50 50 
53 53 53 53 53 53 
38 38 38 38 38 
86 86 86 86 86 86 
69 69 69 
23 23 23 23 
30 30 30 
04 04 04 
40 40 
04 04 
07 07 07 07 07 07 07 
70 70 
08 08 08 08 
81 81 81 81 
19 19 19 
99 99 
95 95 95 
56 56 56 56 
60 60 60 60 60 
08 08 08 
87 87 87 
75 75 75 75 
54 54 54 54 
42 42 42 
29 29 29 29 
98 98 98 98 
86 86 86 86 86 
66 66 66 
69 69 
97 97 
73 73 73 
30 30 
01 01 01 01 
16 16 16 
64 64 64 
41 41 
16 16 
88 88 
83 83 83 83 83 
32 32 32 32 32 32 32 
53 53 53 53 53 
35 35 35 
56 56 56 
60 60 60 60 
98 98 98 
85 85 85 
07 07 07 07 07 07 
71 71 71 71 71 
10 10 10 
08 08 
86 86 86 86 
66 66 
67 67 67 67 67 
73 73 
35 35 
56 56 
62 62 62 
23 23 23 
36 36 36 
63 63 
37 37 37 37 
71 71 71 71 
15 15 15 15 
54 54 54 
43 43 43 43 
38 38 38 38 
86 86 86 
91 91 
12 12 12 
24 24 24 24 
61 61 61 61 61 
17 17 17 
75 75 75 
53 53 53 53 
31 31 
15 15 15 
23 23 
32 32 32 32 32 32 
29 29 29 
94 94 
43 43 43 
53 53 53 
33 33 33 33 33 33 
32 32 32 32 32 
21 21 21 
18 18 18 18 18 
89 89 89 
96 96 96 
67 67 67 67 
33 33 33 33 33 
38 38 38 
84 84 84 
42 42 
26 26 26 
64 64 
46 46 46 
67 67 67 
79 79 
98 98 
81 81 81 
17 17 
76 76 
60 60 60 
01 01 01 
13 13 13 13 
15 15 
53 53 
32 32 32 32 
78 78 78 78 78 78 
80 80 
85 85 
54 54 
86 86 
60 60 
07 07 07 07 07 
72 72 72 72 
29 29 
95 95 
59 59 59 
90 90 90 
07 07 07 07 
78 78 78 78 78 
06 06 
62 62 
21 21 
12 12 
90 90 
01 01 
61 61 61 61 
28 28 
83 83 83 83 
71 71 71 
10 10 
47 47 47 
78 78 78 78 
87 87 
77 77 
72 72 72 
26 26 
61 61 61 
13 13 13 
38 38 
84 84 
24 24 24 
43 43 
83 83 83 
36 36 
13 13 
19 19 
33 33 33 33 
37 37 37 
75 75 
59 59 
96 96 
33 33 
33 33 
32 32 32 
81 81 
18 18 18 18 
07 07 07 
78 78 78 
18 18 18 
47 47 
71 71 
72 72 
24 24 
46 46 
67 67 
61 61 
18 18 
89 89 
32 32 
07 07 
78 78 
83 83 
37 37 
<------------Next-300-Signals------------>
66 66 66 
62 62 62 62 62 62 
27 27 27 
34 34 34 34 
42 42 
23 23 23 
30 30 30 30 30 30 
08 08 
81 81 
16 16 16 16 16 16 
62 62 62 62 62 
29 29 29 29 29 29 29 
91 91 91 91 91 91 
12 12 12 12 
28 28 28 28 28 
83 83 83 83 
31 31 31 31 31 
16 16 16 16 16 
64 64 64 
47 47 47 
77 77 77 77 77 
79 79 79 79 79 
96 96 96 96 
63 63 
33 33 33 33 33 
36 36 36 36 36 
62 62 62 62 
21 21 
18 18 18 18 18 
85 85 85 85 85 
52 52 
23 23 
32 32 32 
28 28 28 28 
82 82 82 
29 29 29 29 29 29 
93 93 93 93 93 93 93 93 93 
34 34 34 
49 49 49 49 
77 77 77 
77 77 77 
78 78 
84 84 84 
48 48 48 48 
83 83 83 
36 36 36 36 
64 64 
43 43 
30 30 30 30 30 
01 01 01 01 01 01 01 01 
12 12 12 
24 24 24 24 
46 46 46 
60 60 60 60 60 60 60 
01 01 01 01 01 01 01 
16 16 16 16 
69 69 69 
93 93 93 93 93 93 93 93 
30 30 30 30 
04 04 
45 45 
59 59 59 59 59 59 
96 96 96 
65 65 65 65 
54 54 
44 44 44 44 44 44 
46 46 
61 61 
14 14 14 14 14 
47 47 
79 79 79 79 
90 90 90 
01 01 01 01 01 01 
13 13 13 13 
30 30 30 
01 01 01 01 01 
16 16 16 
49 49 49 
32 32 
27 27 
39 39 39 39 39 
92 92 92 92 
29 29 29 29 29 
91 91 91 91 91 
14 14 14 14 
41 41 41 41 41 
18 18 18 18 
83 83 
24 24 24 
44 44 44 44 44 
29 29 29 29 
91 91 91 91 
18 18 18 
82 82 
29 29 29 
92 92 92 
28 28 28 
28 28 
87 87 
79 79 79 
92 92 
22 22 22 22 
60 60 60 60 60 60 
06 06 06 06 06 
66 66 
65 65 65 
59 59 59 59 59 
96 96 
67 67 
77 77 
79 79 
91 91 91 
10 10 10 
03 03 03 
31 31 31 31 
10 10 
57 57 
70 70 70 
01 01 01 01 
13 13 13 
33 33 33 33 
86 86 86 86 
49 49 
95 95 95 
76 76 
69 69 
90 90 
01 01 01 
17 17 17 
93 93 93 93 93 93 93 
33 33 33 
36 36 36 
60 60 60 60 60 
01 01 
14 14 14 
41 41 41 41 
14 14 
44 44 44 44 
48 48 48 
86 86 86 
60 60 60 60 
48 48 
89 89 
95 95 
51 51 
18 18 
39 39 39 39 
59 59 59 59 
93 93 93 93 93 93 
30 30 
00 00 00 00 
06 06 06 06 
60 60 60 
06 06 06 
98 98 
85 85 85 85 
53 53 
34 34 
15 15 
55 55 
59 59 59 
03 03 
41 41 41 
12 12 
22 22 22 
17 17 
70 70 
33 33 
36 36 
68 68 68 
85 85 85 
58 58 
85 85 
88 88 88 88 
86 86 
62 62 62 
62 62 
22 22 
24 24 
44 44 44 
29 29 
93 93 93 93 93 
00 00 00 
41 41 
16 16 
60 60 
06 06 
68 68 
88 88 
88 88 
13 13 
39 39 39 
93 93 93 93 
31 31 31 
00 00 
65 65 
59 59 
93 93 93 
39 39 
84 84 
91 91 
93 93 
31 31 
<------------Next-300-Signals------------>
46 46 46 46 46 
69 69 69 69 
96 96 96 96 96 96 
64 64 64 64 64 
41 41 41 41 
19 19 
94 94 94 94 
48 48 48 48 48 48 48 48 
89 89 89 89 89 
98 98 98 98 
87 87 87 87 87 87 
78 78 
86 86 86 86 
68 68 68 68 68 68 
88 88 88 88 
87 87 87 87 87 
72 72 72 
22 22 22 
29 29 
96 96 96 96 96 
61 61 61 61 
18 18 18 18 18 
89 89 89 89 
90 90 
83 83 83 83 
33 33 33 33 
35 35 
51 51 51 51 
97 97 97 97 
74 74 74 74 74 
48 48 48 48 48 48 48 
88 88 88 
84 84 84 84 
46 46 46 46 
79 79 79 79 79 
93 93 
33 33 
33 33 
34 34 34 34 34 34 
41 41 41 
11 11 11 11 
18 18 18 18 
84 84 84 
46 46 46 
64 64 64 64 
48 48 48 48 48 48 
89 89 89 
96 96 96 96 
65 65 65 
51 51 51 
16 16 16 16 
61 61 61 
16 16 16 
64 64 64 
45 45 45 45 45 
55 55 55 
55 55 55 
53 53 53 53 
38 38 38 38 
86 86 86 
60 60 
01 01 01 01 
11 11 11 
18 18 18 
86 86 
69 69 69 
96 96 96 
69 69 
98 98 98 
87 87 87 87 
72 72 
23 23 23 
36 36 
68 68 68 68 68 
82 82 82 82 82 82 
21 21 
11 11 
14 14 14 14 
49 49 49 
99 99 99 99 
55 55 
56 56 
65 65 
53 53 53 
37 37 
74 74 74 74 
43 43 43 43 
94 94 94 
43 43 43 
38 38 38 
83 83 83 
34 34 34 34 34 
48 48 48 48 48 
82 82 82 82 82 
24 24 24 24 
45 45 45 45 
54 54 54 
40 40 40 40 40 
01 01 01 
38 38 
87 87 87 
74 74 74 
43 43 
01 01 
10 10 10 
02 02 02 02 
25 25 25 25 
51 51 
15 15 
57 57 
70 70 
09 09 09 09 09 
99 99 99 
96 96 
52 52 52 52 52 
20 20 20 20 
05 05 
59 59 59 
91 91 91 91 91 
14 14 14 
75 75 
79 79 79 79 
98 98 
84 84 
46 46 
61 61 
17 17 17 
74 74 
48 48 48 48 
83 83 
34 34 34 34 
66 66 66 66 
68 68 68 68 
85 85 85 85 
54 54 
49 49 
92 92 
20 20 20 
09 09 09 09 
94 94 
45 45 45 
52 52 52 52 
26 26 
18 18 
34 34 34 
41 41 
14 14 
40 40 40 40 
07 07 
88 88 
82 82 82 82 
99 99 
20 20 
02 02 02 
23 23 
34 34 
40 40 40 
06 06 06 
64 64 
48 48 48 
82 82 82 
66 66 66 
68 68 68 
17 17 
79 79 79 
91 91 91 91 
24 24 24 
45 45 
59 59 
82 82 
22 22 
16 16 
62 62 62 
24 24 
28 28 28 28 28 
87 87 
62 62 
28 28 28 28 
25 25 25 
52 52 52 
25 25 
53 53 
52 52 
48 48 
89 89 
97 97 97 
85 85 85 
79 79 
91 91 91 
02 02 
28 28 28 
97 97 
06 06 
28 28 
40 40 
85 85 
68 68 
09 09 09 
91 91 
10 10 
09 09 
<------------Next-300-Signals------------>
81 81 81 81 
15 15 15 15 15 
55 55 55 
59 59 59 59 
96 96 96 
69 69 69 69 69 
97 97 97 
72 72 72 
28 28 28 28 28 28 28 28 
88 88 88 
89 89 89 89 
99 99 
90 90 90 90 
07 07 07 07 07 07 
77 77 77 
71 71 71 71 71 71 
18 18 18 18 18 
81 81 81 
18 18 18 18 
81 81 
11 11 
18 18 18 
80 80 80 80 80 
08 08 08 
86 86 86 
67 67 67 67 67 67 
74 74 74 
47 47 47 
76 76 76 76 
63 63 63 
36 36 
69 69 69 69 
97 97 
78 78 78 78 
83 83 83 83 83 83 
30 30 30 30 30 30 
04 04 04 04 
45 45 45 45 
56 56 56 56 56 
68 68 68 
88 88 
85 85 85 
54 54 54 54 54 
48 48 48 48 
82 82 
28 28 28 28 28 28 28 
80 80 80 80 
04 04 04 
45 45 45 
76 76 76 
67 67 67 67 67 
75 75 
59 59 59 
90 90 90 
00 00 00 
04 04 
41 41 41 41 41 41 41 41 
12 12 12 12 
26 26 26 
68 68 
27 27 
74 74 
45 45 
56 56 56 56 
67 67 67 67 
71 71 71 71 71 
15 15 15 15 
50 50 50 
00 00 
07 07 07 07 07 
77 77 
71 71 71 71 
19 19 19 19 19 
94 94 94 94 
41 41 41 41 41 41 41 
13 13 13 13 
37 37 37 37 
71 71 71 
12 12 12 
37 37 37 
70 70 70 
07 07 07 07 
76 76 
64 64 64 
41 41 41 41 41 41 
10 10 
03 03 03 03 03 
34 34 34 
47 47 
57 57 
49 49 
95 95 95 95 
52 52 52 52 
26 26 
67 67 67 
33 33 33 33 33 
33 33 33 33 33 
39 39 
95 95 95 
56 56 56 
69 69 69 
96 96 
69 69 
91 91 91 91 91 91 
17 17 
70 70 
02 02 02 02 
19 19 19 19 
91 91 91 91 91 
14 14 14 
46 46 
65 65 65 
53 53 53 
32 32 32 32 
22 22 22 
22 22 22 
28 28 28 28 28 28 
80 80 80 
02 02 02 
28 28 28 28 28 
89 89 89 
91 91 91 91 
19 19 19 
90 90 
03 03 03 03 
33 33 33 33 
30 30 30 30 30 
03 03 03 
34 34 
41 41 41 41 41 
19 19 
30 30 30 30 
07 07 07 
71 71 
12 12 
25 25 25 25 
53 53 
33 33 33 
65 65 
54 54 54 54 
52 52 52 
67 67 
72 72 
22 22 
28 28 28 28 
40 40 
07 07 
63 63 
33 33 
31 31 
13 13 13 
32 32 32 
20 20 
02 02 
25 25 25 
59 59 
91 91 91 
15 15 15 
79 79 
06 06 06 
54 54 54 
41 41 41 41 
14 14 
41 41 41 
15 15 
54 54 
03 03 
37 37 
91 91 
30 30 30 
44 44 
48 48 48 
89 89 
94 94 94 
25 25 
52 52 
28 28 28 
28 28 
83 83 83 83 83 
30 30 
06 06 
85 85 
95 95 
35 35 
50 50 
83 83 83 83 
78 78 78 
32 32 
13 13 
18 18 
80 80 
08 08 
86 86 
94 94 
64 64 
41 41 
55 55 
48 48 
56 56 
78 78 
83 83 83 
83 83 
<------------Next-300-Signals------------>
28 28 28 28 
38 38 38 38 38 38 
84 84 84 84 
40 40 40 40 40 40 40 40 
01 01 01 
18 18 
84 84 84 
46 46 
60 60 60 
01 01 
11 11 11 
12 12 12 12 12 12 12 12 
28 28 28 
82 82 82 
27 27 27 27 27 27 
70 70 70 70 
04 04 04 04 
49 49 49 49 49 
75 75 
53 53 53 53 
34 34 
49 49 49 49 
94 94 94 94 94 
43 43 43 
38 38 38 38 38 
85 85 85 
26 26 
63 63 63 63 63 63 63 
33 33 33 
31 31 31 31 31 
10 10 10 
02 02 02 02 02 02 02 
24 24 24 24 24 
49 49 49 
95 95 95 95 
54 54 54 54 54 
49 49 
91 91 91 91 91 
14 14 14 14 14 
43 43 
38 38 38 38 
84 84 
48 48 48 
81 81 
87 87 
74 74 
40 40 40 40 40 40 40 
05 05 05 
51 51 51 51 51 
16 16 16 16 
63 63 63 63 63 63 
39 39 39 
93 93 93 93 93 93 93 
36 36 36 36 
63 63 63 63 63 
40 40 40 40 40 40 
00 00 00 00 00 
00 00 00 00 00 
04 04 04 
44 44 
40 40 40 40 40 
06 06 06 
63 63 63 63 
31 31 31 31 
14 14 14 14 
41 41 41 41 
14 14 14 
48 48 
15 15 15 15 
59 59 59 59 
91 91 91 91 
17 17 17 
77 77 77 
72 72 72 72 72 
27 27 27 27 27 
72 72 72 72 
63 63 63 
36 36 36 
61 61 
13 13 
33 33 
36 36 
69 69 69 
94 94 94 94 
41 41 41 
12 12 12 12 12 12 12 
20 20 20 20 20 
02 02 02 02 02 02 
21 21 21 21 
12 12 12 12 12 12 
22 22 22 
29 29 29 29 
93 93 93 93 93 93 
39 39 
92 92 
29 29 29 
94 94 94 
40 40 40 40 
02 02 02 02 02 
28 28 
82 82 
24 24 24 24 
45 45 45 
55 55 55 
59 59 59 
91 91 91 
16 16 16 
63 63 
38 38 38 
41 41 
12 12 12 12 12 
20 20 20 20 
09 09 09 09 09 
93 93 93 93 93 
30 30 30 30 
06 06 
86 86 
11 11 
12 12 12 12 
21 21 21 
15 15 15 
55 55 
54 54 54 54 
45 45 
56 56 
60 60 
00 00 00 00 
09 09 09 09 
96 96 
69 69 
93 93 93 93 
37 37 
67 67 67 
71 71 
10 10 
03 03 
02 02 02 02 
20 20 20 
30 30 30 
07 07 
73 73 
32 32 32 
22 22 
29 29 
94 94 
20 20 
05 05 
54 54 54 
47 47 
72 72 72 
21 21 
16 16 
62 62 
27 27 27 27 
12 12 12 
24 24 24 
40 40 40 
70 70 70 
09 09 09 
95 95 95 
53 53 53 
31 31 31 
17 17 
53 53 
72 72 
23 23 23 
35 35 
31 31 
70 70 
12 12 
27 27 27 
79 79 
95 95 
66 66 66 
80 80 
02 02 02 
00 00 00 
02 02 
27 27 
51 51 51 51 
67 67 
77 77 
04 04 
14 14 
40 40 
54 54 
42 42 
24 24 
51 51 51 
91 91 
15 15 
51 51 
93 93 93 
32 32 
23 23 
93 93 
30 30 
09 09 
38 38 
85 85 
59 59 
<------------Next-300-Signals------------>
23 23 23 23 23 23 23 23 
34 34 34 34 34 34 
46 46 46 
62 62 62 62 62 62 
28 28 28 28 
85 85 
58 58 58 58 
82 82 82 82 
29 29 29 29 29 
95 95 95 95 95 95 95 
50 50 50 
05 05 
56 56 56 56 56 
64 64 
44 44 44 44 44 44 44 
48 48 48 
84 84 84 
42 42 42 42 
22 22 22 
23 23 23 23 23 23 23 
34 34 34 34 34 
45 45 45 45 45 
55 55 55 55 55 
57 57 57 57 57 57 
78 78 78 78 78 78 
84 84 
40 40 40 
03 03 03 03 
39 39 39 39 
99 99 99 
99 99 99 
97 97 
74 74 74 
41 41 41 
18 18 18 18 18 18 
83 83 
34 34 34 34 
42 42 42 
27 27 27 27 27 
93 93 93 
30 30 30 
01 01 01 01 01 
12 12 
22 22 
26 26 
62 62 62 62 62 
25 25 
57 57 57 57 57 
78 78 78 78 78 
89 89 89 89 
92 92 92 92 92 92 
51 51 51 
14 14 14 14 
45 45 45 45 
56 56 56 56 
61 61 61 
14 14 14 
45 45 45 
59 59 59 59 
95 95 95 95 95 95 
58 58 58 
86 86 86 
67 67 67 
75 75 75 75 75 
57 57 57 57 
72 72 72 72 72 
27 27 27 27 
75 75 75 75 
55 55 55 
55 55 55 
50 50 
01 01 01 01 
11 11 
11 11 
10 10 10 
00 00 00 
07 07 
71 71 
14 14 
49 49 49 
94 94 94 94 94 
44 44 44 44 44 44 
47 47 47 47 
70 70 70 70 
27 27 27 
74 74 
44 44 44 44 44 
49 49 
72 72 72 72 
24 24 24 24 
46 46 
67 67 
70 70 70 
09 09 
62 62 62 62 
24 24 24 
48 48 
89 89 89 
94 94 94 94 
41 41 
18 18 18 18 18 
80 80 80 
01 01 01 
15 15 
57 57 57 
75 75 75 
52 52 52 
23 23 23 23 23 23 
52 52 
23 23 23 23 23 
33 33 
34 34 34 
42 42 
29 29 29 29 
95 95 95 95 95 
56 56 56 
65 65 65 
58 58 
88 88 
81 81 81 
19 19 
94 94 94 
43 43 
39 39 39 
93 93 
36 36 36 
66 66 66 
62 62 62 
23 23 23 23 
37 37 37 
36 36 
60 60 
00 00 
47 47 47 
75 75 
55 55 
57 57 
70 70 
06 06 06 
44 44 44 44 
92 92 92 92 92 
13 13 
38 38 
87 87 87 
77 77 77 77 
72 72 72 
27 27 
61 61 
34 34 
40 40 
01 01 
10 10 
18 18 18 18 
51 51 
81 81 
29 29 29 
95 95 95 95 
59 59 59 
94 94 
44 44 44 
45 45 
31 31 
92 92 92 92 
29 29 
99 99 
95 95 95 
56 56 
18 18 18 
80 80 
39 39 
90 90 
06 06 
65 65 
59 59 
92 92 92 
28 28 28 
86 86 
18 18 
82 82 82 
23 23 23 
30 30 
04 04 04 
47 47 
77 77 77 
92 92 
23 23 
04 04 
28 28 
87 87 
89 89 
78 78 78 78 
72 72 
37 37 
78 78 78 
82 82 
66 66 
95 95 
78 78 
62 62 
24 24 
03 03 03 
03 03 
44 44 
<------------Next-300-Signals------------>
16 16 16 
67 67 67 67 67 
71 71 71 71 
17 17 17 17 
70 70 70 70 
02 02 
28 28 28 28 
89 89 89 89 89 
28 28 28 
86 86 86 86 86 86 86 
61 61 61 61 
15 15 15 15 15 
50 50 50 50 50 50 
09 09 09 09 
93 93 93 93 
37 37 37 37 
76 76 76 76 76 
64 64 64 64 64 64 
40 40 40 40 40 40 
09 09 09 
93 93 93 
38 38 38 
89 89 89 89 
07 07 07 07 07 07 
70 70 70 
07 07 07 07 07 
70 70 
07 07 07 07 
71 71 71 
17 17 17 
71 71 
10 10 10 10 10 10 
00 00 00 00 00 
05 05 05 
74 74 74 
46 46 46 46 46 46 46 
66 66 66 
69 69 69 69 69 
97 97 97 
75 75 75 75 
52 52 
27 27 
79 79 79 
91 91 91 
15 15 15 15 
51 51 51 51 51 
16 16 
60 60 60 
01 01 01 01 01 
15 15 15 
51 51 51 51 
17 17 
76 76 76 76 
69 69 69 69 
94 94 94 94 
95 95 95 
58 58 58 58 
84 84 84 84 
44 44 44 44 44 44 
47 47 
79 79 
96 96 96 
62 62 62 
28 28 
81 81 81 
12 12 
26 26 
61 61 61 
14 14 
40 40 40 40 40 
89 89 89 
94 94 94 
44 44 44 44 44 
46 46 46 46 46 46 
67 67 67 67 
74 74 
42 42 42 
23 23 23 
35 35 35 35 
58 58 58 
89 89 
98 98 98 98 98 
80 80 
03 03 03 03 
34 34 
44 44 44 44 
48 48 48 48 48 48 
83 83 83 
35 35 35 
51 51 51 
10 10 10 10 10 
04 04 04 04 
46 46 46 46 46 
69 69 69 
97 97 
75 75 75 
59 59 59 59 59 
98 98 98 98 
83 83 
38 38 
86 86 86 86 86 86 
62 62 
23 23 
31 31 
10 10 10 10 
00 00 00 00 
03 03 03 
30 30 
00 00 
00 00 
01 01 01 01 
13 13 13 13 
33 33 33 33 
03 03 
44 44 44 
41 41 
15 15 
55 55 55 55 
58 58 
37 37 37 
76 76 76 
67 67 67 
78 78 
86 86 86 86 86 
64 64 64 64 64 
46 46 46 46 
61 61 
18 18 18 
81 81 
11 11 11 11 
10 10 10 
05 05 
50 50 50 50 50 
01 01 01 
10 10 
01 01 
11 11 11 
48 48 48 48 48 
09 09 
95 95 
50 50 50 50 
64 64 64 64 
40 40 40 40 
64 64 64 
46 46 46 
65 65 
59 59 59 59 
96 96 
66 66 
63 63 
33 33 33 
39 39 
98 98 98 
24 24 24 
51 51 
11 11 
07 07 07 
77 77 77 
77 77 77 
75 75 
59 59 59 
67 67 
77 77 
13 13 13 
36 36 
64 64 
40 40 40 
07 07 
72 72 
59 59 
91 91 
18 18 
24 24 
48 48 48 48 
85 85 
50 50 50 
40 40 
86 86 86 86 
84 84 84 
42 42 
48 48 48 
50 50 
04 04 04 
46 46 
37 37 
76 76 
55 55 55 
94 94 
48 48 
84 84 
29 29 
69 69 
98 98 
86 86 86 
60 60 
55 55 
86 86 
93 93 
35 35 
13 13 
04 04 
44 44 
<------------Next-300-Signals------------>
