090669 495775 775029 750293 502939 029398 293987 398786 987862 878620 620019 200191 001911 019115 191150 911509 150966 509664 096649 492834 343269 432699 699276 992760 927601 760111 601119 011192 192114 147019 470191 019121 191215 440711 071120 112059 120594 205949 059492 594925 492543 375509 550915 509159 091597 597222 221889 895588 814464 144646 446467 464677 770733 073322 220873 087304 730475 047564 475641 756419 641968 419686 196863 968634 110153 015343 444239 239864 398646 986464 864644 464460 644607 446079 460797 079754 797546 975469 754691 691064 910644 064401 440153 015364 153645 645469 454690 690039 900396 003962 039620 396204 620428 042831 283167 831670 670337 033748 337489 898732 231529 152960 529603 296030 960302 030228 022845 450223 022332 233267 332677 282529 529260 292603 260321 032165 321658 482464 824641 284161 841617 220313 031311 110287 028722 220183 018384 730839 083976 839769 397697 
906695 495775 957750 750293 502939 029398 939878 987862 878620 786200 200191 001911 019115 911509 115096 509664 096649 966492 928343 432699 326992 992760 927601 276011 601119 011192 921147 470191 701912 191215 912154 407112 711205 120594 205949 059492 594925 949254 925437 254375 543755 755091 550915 509159 091597 915972 972221 218895 188955 955881 144646 446467 464677 646770 707332 208730 730475 304756 475641 756419 564196 419686 196863 968634 686347 711015 101534 442398 398646 986464 864644 646446 644607 446079 460797 607975 975469 754691 546910 910644 106440 644015 401536 153645 536454 454690 546900 900396 003962 039620 396204 962042 204283 831670 316703 703374 374898 987323 732315 315296 529603 296030 960302 603022 302284 022845 502233 332677 326772 772825 825292 292603 926032 603216 032165 321658 216585 824641 246418 841617 416178 161785 203131 102872 201838 308397 397697 976970 
066955 495775 957750 502939 029398 293987 786200 862001 001911 019115 191150 150966 096649 966492 664928 326992 269927 276011 760111 011192 111921 701912 019121 191215 912154 071120 711205 112059 205949 059492 594925 949254 254375 543755 437550 550915 509159 091597 915972 218895 188955 889558 446467 464677 646770 467707 073322 087304 730475 304756 047564 756419 564196 641968 196863 968634 686347 863471 711015 110153 015343 423986 986464 864644 646446 464460 446079 460797 607975 079754 546910 469106 106440 064401 644015 440153 015364 153645 536454 364546 546900 469003 003962 039620 396204 962042 042831 316703 167033 033748 748987 732315 323152 152960 296030 960302 030228 022845 228450 022332 326772 267728 772825 728252 252926 926032 260321 032165 321658 216585 165854 246418 464182 416178 161785 617854 031311 028722 018384 083976 976970 769707 
669557 957750 577502 029398 293987 939878 862001 620019 019115 191150 911509 509664 966492 664928 649283 269927 699276 760111 601119 119211 921147 019121 912154 121544 154407 112059 120594 059492 949254 492543 925437 543755 437550 375509 509159 091597 159722 188955 889558 895588 446467 464677 646770 467707 677073 322087 873047 304756 047564 564196 641968 419686 968634 686347 863471 634711 110153 101534 239864 864644 646446 464460 644607 460797 607975 079754 797546 469106 691064 064401 644015 440153 401536 536454 364546 645469 469003 690039 039620 962042 620428 283167 167033 670337 748987 489873 323152 231529 529603 960302 603022 228450 284502 233267 332677 267728 677282 728252 282529 529260 260321 603216 321658 216585 165854 658548 464182 641828 841617 161785 617854 178542 110287 414417 144177 308397 839769 397697 769707 
695574 577502 775029 293987 939878 398786 620019 191150 911509 115096 509664 096649 664928 649283 492834 699276 992760 601119 192114 211470 191215 912154 121544 215440 544071 120594 205949 594925 949254 492543 925437 254375 437550 375509 755091 091597 915972 597222 889558 895588 955881 558814 588144 814464 464677 646770 677073 220873 087304 730475 047564 475641 641968 196863 968634 686347 863471 634711 101534 015343 534334 343344 433444 239864 398646 986464 864644 646446 644607 446079 607975 079754 797546 975469 691064 910644 644015 401536 015364 536454 364546 645469 690039 396204 620428 831670 670337 703374 489873 898732 231529 315296 296030 603022 302284 284502 845022 332677 326772 677282 282529 825292 292603 603216 216585 165854 658548 585482 854824 482464 641828 418284 416178 617854 178542 785422 102872 018384 838414 384144 144177 441773 083976 397697 976970 
955749 775029 750293 502939 939878 398786 987862 620019 911509 115096 150966 096649 966492 928343 343269 432699 992760 927601 601119 921147 114701 147019 912154 121544 215440 154407 440711 112059 205949 059492 949254 492543 925437 254375 543755 375509 755091 550915 509159 915972 159722 972221 221889 895588 955881 558814 588144 881446 144646 646770 467707 770733 208730 873047 304756 475641 756419 968634 686347 634711 015343 153433 343344 433444 334442 444239 398646 986464 864644 646446 446079 460797 079754 797546 975469 754691 910644 106440 015364 153645 364546 645469 454690 690039 900396 962042 316703 033748 337489 898732 987323 231529 315296 152960 960302 022845 845022 450223 326772 267728 282529 825292 252926 926032 165854 658548 585482 854824 548246 824641 182841 161785 178542 785422 854220 028722 183841 384144 841441 441773 417730 730839 839769 976970 769707 
557495 750293 502939 029398 987862 200191 019115 115096 150966 509664 966492 283432 432699 326992 927601 011192 211470 147019 470191 191215 215440 154407 544071 407112 711205 120594 059492 594925 925437 254375 543755 437550 755091 550915 509159 091597 159722 597222 218895 188955 955881 558814 588144 881446 814464 446467 467707 677073 707332 087304 730475 047564 756419 564196 863471 347110 711015 153433 534334 433444 334442 344423 442398 986464 646446 464460 460797 607975 797546 975469 754691 546910 106440 064401 644015 153645 536454 645469 454690 546900 900396 620428 167033 337489 374898 987323 732315 315296 152960 529603 022845 228450 450223 502233 267728 677282 772825 825292 252926 529260 032165 216585 658548 585482 854824 548246 482464 246418 828416 161785 617854 785422 854220 542203 287220 838414 841441 414417 417730 177308 308397 397697 
574957 502939 293987 878620 001911 191150 150966 509664 664928 834326 326992 269927 276011 111921 921147 114701 470191 701912 912154 154407 544071 071120 112059 205949 594925 949254 925437 254375 543755 437550 375509 550915 509159 091597 915972 597222 972221 188955 889558 558814 588144 814464 144646 446467 464677 467707 677073 770733 073322 322087 873047 304756 475641 564196 641968 686347 634711 471101 110153 534334 334442 344423 444239 423986 864644 464460 644607 460797 607975 079754 975469 754691 546910 064401 644015 440153 536454 364546 454690 546900 003962 204283 283167 670337 374898 748987 873231 323152 152960 529603 228450 284502 502233 233267 332677 677282 772825 728252 252926 529260 321658 165854 585482 854824 548246 824641 464182 284161 841617 617854 178542 854220 542203 110287 872201 384144 414417 144177 177308 773083 308397 083976 397697 976970 769707 
749577 029398 293987 939878 786200 019115 911509 509664 649283 343269 269927 699276 760111 119211 921147 211470 147019 701912 019121 121544 154407 544071 440711 711205 120594 059492 949254 492543 925437 254375 543755 437550 375509 755091 509159 091597 915972 159722 722218 889558 895588 144646 446467 464677 646770 467707 677073 770733 707332 733220 322087 220873 873047 730475 047564 756419 641968 419686 686347 863471 347110 711015 101534 343344 344423 444239 442398 239864 646446 644607 446079 460797 607975 079754 797546 754691 546910 469106 644015 440153 401536 364546 645469 546900 469003 039620 042831 283167 831670 670337 703374 748987 489873 732315 231529 529603 284502 845022 233267 332677 326772 772825 728252 282529 529260 216585 658548 548246 246418 641828 841617 416178 178542 785422 542203 110287 102872 722018 841441 414417 144177 441773 773083 730839 308397 083976 839769 397697 976970 769707 
495775 293987 939878 398786 019115 191150 115096 096649 492834 432699 699276 992760 192114 211470 114701 470191 191215 215440 544071 440711 407112 711205 205949 594925 492543 925437 254375 543755 437550 375509 755091 550915 091597 915972 159722 597222 218895 188955 895588 955881 446467 464677 646770 467707 677073 770733 220873 208730 730475 304756 475641 419686 196863 863471 634711 471101 711015 015343 433444 444239 442398 423986 398646 464460 446079 460797 607975 079754 797546 975469 469106 691064 644015 440153 401536 015364 153645 645469 454690 469003 690039 396204 428316 831670 316703 703374 033748 489873 898732 732315 315296 296030 022845 845022 450223 332677 326772 267728 772825 825292 292603 032165 216585 165854 585482 482464 464182 418284 416178 161785 785422 422031 102872 028722 414417 144177 441773 417730 083976 839769 397697 976970 769707 
957750 939878 398786 987862 878620 786200 191150 911509 150966 966492 928343 992760 927601 921147 211470 114701 147019 912154 215440 154407 440711 407112 071120 112059 059492 949254 925437 254375 543755 437550 755091 550915 509159 915972 159722 597222 972221 188955 889558 955881 558814 646770 467707 677073 770733 707332 733220 208730 087304 304756 047564 756419 968634 634711 347110 110153 153433 986464 464460 460797 607975 079754 797546 975469 754691 546910 910644 106440 440153 153645 536454 454690 546900 900396 039620 962042 831670 316703 167033 033748 337489 898732 987323 323152 152960 296030 960302 228450 450223 326772 267728 677282 728252 252926 529260 926032 321658 165854 658548 854824 161785 617854 854220 313110 028722 287220 441773 417730 177308 839769 397697 976970 769707 
577502 987862 878620 786200 862001 911509 509664 966492 283432 326992 927601 276011 011192 114701 147019 470191 701912 121544 154407 544071 407112 071120 711205 120594 059492 594925 492543 543755 437550 375509 550915 509159 091597 915972 159722 597222 972221 889558 895588 558814 588144 467707 677073 770733 707332 073322 332208 087304 873047 047564 475641 564196 347110 471101 101534 534334 334442 644607 607975 079754 797546 975469 546910 469106 064401 401536 536454 364546 546900 469003 003962 396204 962042 316703 167033 670337 337489 374898 898732 987323 873231 323152 231529 529603 960302 603022 284502 845022 502233 022332 326772 267728 677282 772825 728252 282529 825292 529260 292603 926032 216585 658548 585482 548246 464182 617854 178542 785422 542203 131102 102872 028722 287220 872201 417730 177308 773083 397697 976970 769707 
775029 878620 786200 862001 620019 911509 115096 096649 664928 834326 343269 432699 269927 276011 760111 601119 111921 147019 470191 701912 019121 215440 544071 071120 711205 112059 205949 594925 925437 375509 755091 509159 915972 159722 597222 972221 722218 221889 895588 955881 677073 770733 707332 073322 733220 322087 873047 730475 475641 756419 471101 711015 015343 344423 444239 446079 079754 797546 975469 754691 691064 644015 015364 645469 469003 690039 039620 962042 620428 167033 670337 703374 337489 374898 748987 987323 873231 732315 231529 315296 296030 603022 030228 845022 450223 223326 267728 677282 772825 728252 282529 825292 252926 926032 260321 165854 585482 854824 641828 178542 785422 854220 422031 311028 028722 287220 872201 722018 177308 773083 730839 839769 976970 769707 
750293 786200 620019 200191 115096 150966 966492 649283 928343 343269 432699 326992 699276 760111 011192 119211 470191 701912 191215 154407 440711 711205 120594 059492 949254 492543 254375 755091 550915 091597 159722 597222 972221 722218 218895 955881 558814 677073 770733 707332 733220 332208 220873 730475 756419 564196 196863 711015 110153 015343 153433 344423 444239 442398 460797 797546 754691 910644 440153 153645 454690 469003 690039 900396 396204 620428 204283 316703 167033 670337 703374 374898 748987 489873 987323 873231 732315 315296 152960 529603 960302 030228 302284 450223 502233 233267 677282 772825 728252 825292 252926 529260 292603 260321 603216 658548 854824 548246 418284 785422 854220 542203 220313 110287 287220 872201 722018 220183 441773 773083 730839 308397 397697 769707 
502939 862001 620019 200191 001911 911509 150966 509664 096649 664928 492834 283432 343269 432699 326992 269927 992760 601119 111921 192114 147019 701912 912154 544071 407112 112059 205949 594925 492543 925437 543755 375509 550915 509159 915972 597222 972221 722218 222188 221889 188955 558814 588144 770733 707332 332208 322087 208730 304756 756419 564196 641968 968634 101534 153433 534334 444239 442398 423986 446079 607975 975469 546910 106440 401536 536454 645469 546900 690039 900396 003962 962042 204283 042831 167033 670337 703374 337489 748987 898732 873231 732315 231529 152960 529603 296030 603022 302284 022845 502233 022332 332677 772825 282529 252926 529260 292603 926032 603216 032165 585482 548246 482464 182841 542203 422031 203131 102872 872201 722018 201838 417730 730839 308397 083976 839769 976970 
029398 620019 200191 001911 019115 115096 509664 096649 966492 664928 649283 928343 834326 432699 326992 269927 699276 927601 011192 119211 921147 470191 019121 121544 071120 120594 059492 949254 925437 254375 755091 509159 091597 159722 722218 222188 221889 218895 889558 895588 707332 073322 332208 322087 220873 087304 047564 564196 641968 419686 686347 015343 534334 343344 442398 423986 239864 460797 079754 754691 469106 064401 015364 454690 469003 900396 003962 039620 620428 042831 428316 670337 703374 033748 374898 489873 987323 732315 323152 315296 529603 960302 030228 022845 228450 022332 223326 326772 267728 728252 825292 529260 926032 260321 032165 321658 658548 824641 246418 641828 828416 416178 422031 220313 031311 311028 028722 722018 220183 201838 018384 177308 308397 083976 839769 397697 769707 
293987 200191 001911 191150 150966 096649 664928 649283 492834 283432 343269 326992 269927 699276 992760 276011 111921 192114 921147 211470 701912 191215 215440 154407 205949 594925 492543 925437 254375 543755 550915 091597 915972 597222 222188 221889 218895 188955 895588 955881 446467 464677 467707 073322 733220 322087 220873 208730 873047 641968 419686 196863 686347 863471 153433 343344 433444 423986 239864 398646 644607 460797 607975 797546 546910 691064 153645 546900 690039 003962 396204 204283 283167 670337 703374 033748 337489 748987 898732 873231 323152 231529 152960 296030 603022 302284 228450 284502 223326 233267 332677 267728 677282 282529 252926 292603 260321 603216 216585 585482 246418 464182 418284 284161 841617 161785 220313 203131 313110 110287 287220 220183 201838 018384 183841 414417 144177 773083 308397 083976 397697 976970 769707 
939878 019115 911509 509664 966492 664928 649283 492834 928343 834326 432699 269927 699276 992760 927601 119211 921147 211470 019121 912154 544071 059492 949254 925437 254375 437550 509159 915972 159722 972221 722218 222188 221889 218895 889558 895588 955881 558814 464677 646770 677073 733220 332208 220873 730475 641968 419686 196863 968634 863471 634711 534334 433444 334442 442398 239864 986464 446079 607975 079754 975469 469106 910644 536454 469003 900396 039620 962042 620428 042831 831670 703374 033748 337489 374898 489873 987323 732315 231529 529603 960302 030228 022845 233267 332677 326772 267728 772825 529260 926032 032165 321658 165854 658548 854824 246418 641828 182841 416178 617854 031311 131102 311028 102872 722018 201838 183841 838414 144177 441773 177308 730839 083976 839769 976970 769707 
398786 191150 115096 150966 096649 649283 492834 928343 834326 343269 326992 699276 992760 192114 114701 191215 440711 594925 492543 543755 375509 091597 159722 597222 222188 221889 218895 188955 895588 955881 558814 588144 881446 144646 646770 467707 770733 332208 322087 208730 304756 564196 419686 196863 968634 634711 347110 343344 334442 344423 423986 398646 646446 460797 079754 797546 469106 691064 401536 364546 690039 900396 396204 204283 428316 316703 033748 337489 374898 748987 898732 323152 315296 296030 302284 228450 223326 332677 326772 267728 677282 728252 252926 292603 603216 321658 216585 658548 585482 548246 464182 418284 828416 161785 178542 313110 311028 110287 028722 220183 018384 838414 384144 441773 417730 773083 308397 083976 839769 397697 769707 
987862 911509 150966 509664 966492 492834 928343 283432 343269 326992 992760 927601 011192 921147 147019 701912 912154 407112 059492 949254 925437 437550 915972 159722 597222 972221 221889 218895 188955 889558 955881 558814 588144 881446 814464 446467 467707 677073 707332 073322 220873 087304 047564 641968 196863 968634 686347 347110 334442 239864 986464 464460 607975 797546 975469 691064 910644 015364 645469 900396 003962 962042 042831 283167 167033 337489 374898 489873 898732 987323 323152 152960 960302 603022 022845 284502 845022 022332 233267 326772 267728 677282 772825 728252 282529 825292 529260 926032 032165 165854 585482 854824 482464 464182 641828 182841 284161 617854 178542 785422 131102 102872 028722 287220 201838 183841 384144 417730 177308 730839 083976 839769 397697 976970 
878620 191150 509664 096649 664928 928343 834326 432699 269927 992760 927601 276011 111921 211470 470191 019121 215440 071120 594925 437550 375509 159722 597222 972221 218895 188955 889558 895588 558814 588144 881446 814464 144646 464677 646770 677073 770733 073322 733220 208730 873047 475641 419686 968634 863471 347110 471101 344423 398646 864644 464460 644607 079754 975469 754691 546910 910644 106440 153645 454690 546900 039620 620428 428316 831670 670337 374898 748987 898732 987323 873231 231529 152960 529603 296030 603022 030228 228450 845022 450223 223326 332677 267728 677282 772825 728252 282529 825292 252926 529260 292603 260321 321658 658548 854824 548246 824641 641828 418284 828416 841617 178542 785422 854220 313110 311028 028722 287220 872201 018384 838414 841441 417730 177308 773083 308397 839769 397697 976970 
786200 191150 911509 096649 966492 649283 283432 343269 326992 699276 992760 927601 276011 760111 119211 211470 114701 701912 191215 215440 154407 071120 711205 949254 437550 375509 755091 597222 972221 722218 188955 889558 588144 881446 446467 646770 467707 770733 707332 733220 332208 208730 087304 730475 756419 196863 686347 347110 471101 711015 444239 986464 646446 464460 644607 446079 797546 754691 546910 469106 106440 064401 536454 454690 546900 469003 039620 396204 204283 283167 831670 316703 703374 748987 489873 987323 873231 732315 315296 152960 529603 296030 960302 030228 302284 228450 284502 450223 502233 233267 326772 677282 772825 728252 282529 825292 529260 292603 926032 603216 216585 585482 548246 482464 246418 418284 182841 284161 416178 785422 854220 542203 313110 131102 110287 287220 872201 722018 183841 384144 417730 177308 773083 730839 083976 976970 769707 
862001 911509 115096 966492 664928 492834 834326 432699 269927 992760 927601 276011 760111 111921 119211 192114 114701 147019 470191 019121 912154 154407 544071 440711 711205 112059 492543 375509 755091 972221 722218 222188 889558 895588 955881 881446 814464 464677 467707 677073 332208 322087 087304 873047 475641 564196 968634 863471 634711 471101 711015 442398 864644 464460 644607 446079 460797 754691 469106 691064 064401 644015 364546 546900 469003 690039 396204 962042 042831 831670 316703 167033 898732 873231 732315 152960 529603 296030 960302 603022 302284 022845 284502 845022 502233 022332 332677 267728 772825 282529 825292 252926 292603 926032 260321 032165 165854 854824 482464 824641 464182 182841 828416 284161 841617 161785 854220 542203 422031 203131 031311 131102 311028 102872 872201 722018 183841 838414 841441 177308 773083 839769 769707 
620019 115096 150966 096649 664928 649283 928343 343269 432699 326992 699276 927601 276011 760111 601119 119211 192114 921147 147019 470191 701912 191215 121544 544071 440711 407112 112059 120594 205949 925437 375509 755091 550915 509159 722218 222188 221889 558814 646770 677073 770733 322087 220873 873047 730475 756419 641968 686347 634711 347110 711015 110153 444239 423986 646446 644607 446079 460797 607975 975469 546910 691064 910644 644015 440153 645469 469003 690039 900396 962042 620428 428316 167033 670337 337489 732315 323152 231529 529603 296030 960302 603022 030228 022845 228450 845022 450223 022332 223326 326772 677282 728252 282529 825292 529260 926032 260321 603216 321658 658548 824641 246418 641828 828416 841617 617854 422031 220313 031311 313110 311028 110287 028722 722018 220183 838414 414417 773083 730839 839769 
200191 150966 509664 966492 283432 432699 326992 269927 927601 276011 760111 601119 011192 111921 119211 192114 921147 211470 114701 470191 701912 019121 912154 215440 544071 440711 407112 071120 120594 205949 059492 254375 755091 550915 509159 091597 972221 222188 221889 218895 955881 588144 770733 707332 220873 208730 730475 304756 475641 564196 863471 634711 347110 471101 110153 101534 442398 239864 460797 607975 754691 469106 910644 106440 064401 440153 401536 454690 690039 900396 003962 620428 204283 042831 283167 670337 703374 374898 873231 323152 231529 315296 296030 960302 603022 030228 302284 228450 284502 450223 502233 223326 233267 267728 282529 825292 252926 292603 260321 603216 032165 216585 824641 246418 464182 182841 284161 416178 422031 220313 203131 031311 313110 131102 110287 102872 287220 872201 220183 201838 183841 384144 841441 144177 730839 308397 397697 
001911 509664 096649 664928 326992 269927 927601 276011 760111 601119 011192 111921 119211 192114 921147 211470 114701 147019 470191 701912 019121 191215 121544 544071 440711 407112 071120 711205 205949 059492 594925 755091 550915 509159 091597 915972 972221 722218 221889 188955 955881 558814 881446 707332 073322 208730 087304 304756 047564 475641 756419 641968 863471 634711 347110 471101 711015 101534 015343 423986 607975 079754 754691 546910 691064 106440 064401 644015 401536 015364 546900 900396 003962 039620 204283 042831 428316 831670 703374 033748 748987 873231 732315 231529 152960 603022 030228 302284 022845 502233 022332 252926 260321 603216 032165 321658 824641 246418 641828 182841 828416 284161 841617 161785 422031 220313 203131 031311 313110 131102 311028 102872 028722 872201 722018 201838 018384 183841 838414 841441 414417 441773 308397 083976 976970 
019115 096649 649283 269927 699276 276011 760111 601119 011192 111921 119211 192114 921147 211470 114701 147019 470191 701912 019121 191215 912154 215440 440711 407112 071120 711205 112059 059492 594925 949254 254375 543755 550915 509159 091597 915972 159722 722218 222188 218895 188955 889558 558814 588144 814464 073322 087304 730475 047564 756419 564196 419686 634711 347110 471101 711015 110153 015343 239864 607975 079754 546910 469106 910644 064401 644015 440153 015364 153645 469003 003962 039620 042831 428316 283167 316703 033748 489873 732315 323152 315296 529603 030228 022845 022332 772825 529260 603216 032165 216585 246418 464182 418284 828416 284161 841617 416178 161785 617854 220313 203131 031311 313110 131102 311028 110287 028722 722018 220183 018384 838414 384144 414417 144177 417730 083976 839769 769707 
191150 492834 699276 992760 760111 601119 011192 111921 119211 192114 921147 211470 114701 147019 470191 701912 019121 191215 912154 121544 215440 154407 407112 071120 711205 112059 120594 594925 949254 492543 543755 437550 509159 091597 159722 597222 222188 221889 188955 889558 895588 588144 881446 144646 646770 733220 208730 304756 564196 641968 196863 347110 471101 711015 110153 101534 153433 398646 464460 079754 797546 546910 469106 691064 106440 440153 401536 153645 536454 454690 546900 690039 039620 396204 283167 831670 167033 898732 323152 231529 152960 296030 228450 728252 529260 292603 032165 321658 165854 464182 641828 182841 284161 841617 416178 161785 617854 178542 854220 203131 031311 313110 131102 311028 110287 102872 287220 220183 201838 183841 384144 841441 144177 441773 417730 177308 397697 976970 
911509 928343 343269 432699 992760 927601 601119 011192 111921 119211 921147 211470 114701 147019 701912 019121 191215 912154 121544 215440 154407 071120 711205 112059 120594 205949 949254 492543 925437 437550 375509 509159 091597 915972 972221 221889 218895 889558 895588 955881 881446 814464 467707 332208 087304 047564 756419 641968 419686 968634 471101 711015 110153 101534 015343 444239 986464 644607 446079 797546 975469 469106 691064 910644 064401 401536 015364 364546 645469 546900 469003 690039 900396 396204 962042 831670 316703 337489 987323 231529 315296 529603 960302 284502 282529 292603 926032 321658 216585 658548 641828 418284 841617 416178 161785 617854 178542 542203 031311 313110 131102 311028 110287 872201 201838 018384 841441 414417 441773 417730 177308 730839 839769 976970 769707 
115096 834326 432699 326992 699276 276011 011192 111921 119211 192114 211470 114701 147019 470191 019121 191215 912154 121544 215440 154407 544071 711205 112059 120594 205949 059492 925437 375509 755091 091597 915972 159722 218895 188955 895588 955881 881446 814464 144646 677073 322087 873047 304756 475641 564196 419686 196863 711015 110153 101534 015343 153433 442398 423986 398646 646446 446079 460797 797546 975469 754691 469106 691064 910644 106440 644015 401536 015364 153645 364546 645469 454690 469003 690039 900396 962042 428316 316703 167033 374898 315296 152960 296030 603022 845022 223326 825292 252926 926032 603216 216585 165854 585482 548246 418284 182841 828416 416178 161785 617854 178542 785422 422031 313110 131102 311028 110287 102872 722018 018384 183841 414417 144177 417730 177308 773083 308397 083976 397697 
150966 834326 343269 326992 269927 699276 992760 760111 111921 119211 192114 114701 147019 470191 701912 191215 121544 154407 440711 112059 120594 205949 059492 594925 254375 755091 550915 915972 159722 188955 955881 558814 881446 814464 144646 446467 770733 220873 730475 304756 047564 756419 564196 641968 419686 196863 110153 101534 153433 423986 239864 398646 986464 646446 464460 460797 607975 797546 975469 754691 546910 469106 691064 910644 106440 440153 401536 015364 153645 364546 645469 454690 546900 690039 900396 003962 620428 428316 283167 167033 670337 748987 315296 152960 960302 030228 450223 223326 233267 252926 529260 260321 603216 032165 165854 658548 854824 548246 482464 182841 828416 284161 161785 178542 854220 220313 131102 110287 102872 220183 183841 144177 177308 730839 083976 839769 976970 
509664 343269 432699 269927 699276 992760 927601 601119 119211 192114 701912 019121 912154 121544 544071 407112 120594 205949 059492 594925 949254 543755 550915 509159 159722 597222 889558 558814 588144 814464 144646 446467 464677 707332 208730 087304 304756 047564 475641 564196 641968 419686 196863 968634 101534 534334 343344 433444 239864 398646 986464 864644 464460 644607 607975 079754 975469 754691 546910 469106 691064 910644 106440 401536 015364 153645 536454 645469 454690 546900 469003 900396 003962 039620 396204 204283 283167 831670 703374 489873 152960 529603 603022 302284 502233 233267 332677 529260 292603 603216 032165 321658 165854 585482 854824 548246 482464 824641 418284 284161 841617 617854 542203 203131 102872 201838 018384 838414 384144 308397 839769 397697 769707 
096649 343269 432699 326992 699276 992760 927601 276011 601119 011192 192114 921147 147019 019121 191215 121544 215440 071120 112059 205949 059492 594925 492543 375509 509159 091597 597222 221889 895588 588144 881446 144646 446467 464677 646770 073322 087304 873047 047564 475641 756419 419686 196863 968634 686347 015343 343344 433444 334442 444239 398646 986464 864644 646446 644607 446079 079754 797546 975469 754691 546910 691064 910644 106440 064401 015364 153645 536454 364546 645469 454690 546900 690039 003962 039620 396204 962042 042831 831670 316703 033748 337489 898732 231529 529603 296030 030228 022845 022332 332677 326772 282529 292603 926032 032165 321658 216585 658548 548246 824641 246418 182841 841617 416178 178542 031311 028722 018384 183841 384144 841441 730839 083976 839769 397697 976970 
966492 432699 326992 269927 992760 927601 276011 760111 011192 921147 211470 470191 701912 912154 215440 154407 407112 120594 059492 949254 925437 755091 091597 915972 159722 597222 972221 218895 955881 881446 814464 446467 464677 646770 467707 707332 073322 730475 756419 564196 196863 968634 686347 863471 153433 433444 334442 344423 442398 986464 864644 646446 464460 446079 460797 975469 754691 546910 469106 910644 106440 064401 536454 364546 645469 454690 546900 469003 900396 003962 396204 962042 620428 316703 167033 337489 374898 898732 987323 323152 315296 296030 960302 603022 228450 284502 845022 022332 326772 267728 677282 728252 825292 926032 260321 216585 165854 585482 482464 246418 464182 828416 416178 161785 178542 785422 131102 102872 028722 838414 841441 414417 308397 397697 976970 769707 
664928 326992 269927 699276 760111 601119 111921 114701 701912 019121 154407 544071 071120 205949 594925 254375 550915 915972 159722 597222 972221 722218 222188 188955 889558 895588 814464 144646 464677 646770 467707 677073 073322 733220 332208 304756 564196 641968 968634 686347 863471 634711 534334 334442 344423 444239 442398 423986 864644 646446 464460 644607 460797 607975 754691 546910 469106 691064 064401 644015 364546 645469 454690 546900 469003 690039 003962 039620 962042 620428 204283 167033 670337 033748 374898 748987 987323 231529 152960 960302 603022 030228 284502 845022 450223 223326 267728 677282 772825 282529 252926 260321 603216 321658 165854 658548 854824 824641 246418 464182 641828 284161 416178 161785 617854 785422 854220 311028 028722 287220 722018 201838 384144 414417 144177 177308 083976 976970 769707 
649283 269927 699276 601119 119211 147019 019121 191215 544071 440711 711205 059492 949254 492543 543755 509159 159722 597222 972221 722218 222188 221889 889558 895588 955881 144646 446467 646770 677073 770733 733220 332208 322087 220873 047564 641968 419686 196863 686347 634711 347110 110153 015343 153433 343344 344423 444239 442398 423986 239864 646446 644607 446079 607975 079754 546910 469106 691064 644015 440153 645469 546900 469003 690039 039620 396204 620428 204283 042831 316703 167033 670337 337489 748987 489873 987323 873231 315296 529603 603022 030228 302284 845022 450223 502233 233267 677282 728252 825292 529260 292603 603216 216585 658548 585482 548246 246418 464182 641828 418284 841617 161785 617854 854220 542203 220313 110287 287220 872201 220183 018384 841441 144177 441773 773083 839769 769707 
492834 699276 992760 192114 470191 191215 912154 121544 440711 407112 112059 120594 594925 949254 492543 925437 437550 091597 597222 972221 722218 222188 221889 218895 895588 955881 558814 588144 814464 446467 464677 467707 770733 707332 332208 322087 220873 208730 087304 047564 475641 419686 196863 968634 471101 101534 153433 534334 343344 433444 444239 442398 423986 239864 398646 986464 864644 464460 446079 460797 079754 797546 469106 691064 910644 440153 401536 015364 536454 454690 469003 690039 396204 962042 042831 428316 167033 670337 703374 374898 489873 898732 873231 732315 152960 296030 302284 022845 450223 502233 022332 332677 772825 282529 252926 292603 926032 032165 165854 854824 482464 464182 641828 418284 182841 416178 617854 542203 422031 203131 102872 872201 722018 201838 018384 183841 838414 384144 414417 441773 417730 730839 397697 
928343 992760 927601 921147 912154 121544 215440 120594 205949 949254 492543 925437 254375 915972 972221 722218 222188 221889 218895 188955 955881 558814 588144 881446 144646 677073 770733 707332 073322 322087 220873 208730 087304 873047 475641 196863 968634 686347 110153 015343 153433 534334 343344 433444 334442 344423 442398 423986 398646 986464 864644 646446 797546 975469 910644 106440 440153 015364 153645 364546 469003 900396 962042 620428 204283 428316 316703 167033 670337 703374 033748 748987 489873 898732 987323 732315 323152 529603 960302 022845 228450 450223 502233 022332 223326 326772 728252 825292 529260 292603 926032 260321 321658 658548 548246 824641 418284 182841 828416 178542 542203 422031 220313 031311 028722 722018 220183 018384 183841 838414 384144 841441 441773 177308 773083 308397 976970 
283432 276011 011192 211470 701912 215440 154407 407112 205949 059492 925437 254375 543755 915972 159722 597222 222188 221889 218895 188955 889558 588144 881446 814464 446467 770733 707332 073322 733220 220873 208730 087304 873047 730475 756419 968634 686347 863471 101534 153433 534334 343344 433444 334442 344423 444239 423986 239864 986464 646446 464460 975469 106440 064401 401536 153645 536454 645469 690039 003962 962042 620428 204283 042831 283167 167033 670337 703374 033748 337489 489873 898732 987323 873231 323152 231529 296030 960302 603022 228450 284502 845022 502233 022332 223326 233267 326772 267728 677282 728252 282529 825292 252926 292603 926032 260321 603216 216585 585482 482464 246418 464182 182841 828416 284161 178542 785422 422031 220313 203131 313110 131102 102872 028722 287220 220183 201838 183841 838414 384144 841441 414417 417730 773083 730839 083976 
834326 111921 114701 019121 154407 544071 071120 594925 254375 437550 159722 597222 972221 889558 895588 881446 814464 144646 464677 707332 073322 733220 332208 087304 873047 730475 304756 564196 419686 686347 863471 634711 015343 534334 343344 433444 334442 344423 444239 442398 423986 239864 398646 864644 646446 464460 644607 797546 754691 469106 064401 644015 401536 015364 536454 364546 454690 900396 039620 620428 204283 428316 831670 670337 703374 033748 337489 374898 898732 987323 873231 732315 231529 315296 960302 603022 030228 284502 845022 450223 022332 223326 233267 332677 267728 772825 282529 825292 252926 260321 603216 032165 854824 548246 824641 464182 641828 828416 284161 841617 785422 854220 220313 031311 131102 311028 028722 287220 872201 018384 838414 384144 841441 414417 144177 177308 730839 308397 083976 839769 
343269 601119 119211 147019 191215 544071 440711 711205 112059 205949 949254 543755 375509 509159 597222 972221 722218 221889 814464 144646 446467 646770 073322 733220 332208 322087 873047 304756 047564 756419 641968 196863 863471 347110 153433 343344 433444 334442 344423 444239 442398 423986 239864 398646 986464 646446 464460 644607 446079 975469 546910 691064 644015 440153 015364 153645 364546 645469 546900 690039 003962 396204 204283 042831 283167 316703 703374 033748 337489 374898 748987 873231 323152 231529 315296 152960 603022 030228 302284 845022 450223 502233 223326 233267 332677 326772 677282 728252 282529 825292 529260 603216 032165 321658 548246 482464 246418 641828 418284 284161 841617 854220 542203 203131 313110 311028 110287 287220 872201 183841 384144 841441 144177 441773 773083 730839 308397 083976 839769 397697 
432699 601119 011192 192114 147019 470191 912154 440711 407112 112059 120594 205949 059492 492543 437550 375509 755091 509159 091597 972221 722218 222188 221889 218895 144646 446467 464677 467707 733220 332208 322087 730475 475641 756419 564196 419686 968634 634711 471101 534334 433444 334442 444239 442398 423986 239864 398646 864644 464460 644607 446079 460797 975469 754691 469106 910644 440153 401536 153645 536454 645469 454690 469003 690039 900396 039620 962042 042831 428316 831670 033748 337489 374898 489873 732315 231529 315296 152960 529603 030228 302284 022845 450223 502233 022332 233267 332677 772825 282529 825292 252926 292603 032165 321658 482464 824641 464182 418284 182841 841617 416178 542203 422031 031311 131102 102872 872201 722018 838414 414417 441773 417730 730839 308397 839769 397697 
326992 011192 111921 921147 470191 701912 121544 407112 120594 205949 059492 594925 925437 375509 755091 550915 091597 915972 159722 597222 722218 222188 221889 218895 188955 446467 646770 707332 073322 332208 322087 220873 304756 756419 564196 641968 196863 686347 347110 343344 334442 344423 442398 423986 398646 986464 646446 446079 460797 607975 754691 546910 106440 536454 364546 454690 546900 900396 003962 396204 962042 620428 428316 316703 337489 374898 748987 898732 323152 315296 152960 529603 296030 960302 603022 302284 022845 228450 284502 845022 022332 223326 332677 326772 677282 728252 825292 252926 529260 926032 321658 216585 585482 824641 246418 464182 828416 416178 178542 785422 422031 220313 313110 131102 311028 102872 028722 722018 220183 384144 308397 083976 397697 976970 
269927 111921 119211 921147 211470 701912 019121 215440 154407 071120 205949 059492 594925 949254 925437 254375 550915 509159 091597 915972 159722 597222 972221 222188 221889 218895 188955 889558 446467 464677 467707 073322 733220 322087 220873 208730 873047 564196 641968 419686 968634 686347 863471 344423 423986 239864 864644 464460 644607 460797 607975 079754 546910 469106 064401 364546 546900 469003 003962 039620 962042 620428 204283 283167 167033 670337 748987 489873 987323 231529 152960 529603 296030 960302 603022 030228 228450 284502 845022 450223 223326 233267 332677 267728 772825 282529 252926 529260 292603 260321 216585 165854 854824 246418 464182 641828 284161 841617 161785 785422 854220 220313 203131 311028 110287 028722 287220 220183 201838 414417 144177 308397 083976 839769 397697 976970 769707 
699276 119211 192114 211470 019121 191215 544071 711205 059492 594925 949254 492543 254375 509159 091597 915972 159722 597222 972221 722218 889558 895588 881446 144646 464677 646770 677073 733220 332208 220873 730475 304756 564196 641968 419686 196863 686347 863471 634711 444239 423986 239864 398646 646446 644607 446079 607975 079754 797546 469106 691064 644015 401536 364546 645469 469003 690039 900396 039620 396204 620428 204283 428316 831670 670337 703374 489873 898732 873231 315296 529603 296030 603022 030228 302284 450223 502233 223326 233267 332677 326772 677282 728252 825292 252926 529260 292603 603216 658548 548246 641828 418284 828416 416178 617854 854220 542203 110287 102872 287220 872201 144177 441773 083976 839769 397697 976970 769707 
992760 192114 921147 211470 114701 191215 912154 215440 440711 071120 112059 594925 949254 492543 925437 543755 437550 091597 915972 159722 597222 972221 722218 222188 895588 955881 814464 446467 646770 467707 770733 733220 332208 322087 208730 304756 047564 641968 196863 968634 634711 347110 442398 239864 398646 986464 464460 460797 079754 797546 975469 546910 691064 910644 106440 015364 645469 454690 546900 690039 900396 003962 039620 396204 962042 042831 283167 831670 316703 033748 898732 987323 732315 152960 296030 960302 302284 022845 228450 502233 022332 233267 332677 326772 267728 772825 282529 252926 529260 292603 926032 032165 482464 182841 284161 161785 854220 542203 422031 313110 102872 028722 287220 872201 722018 441773 417730 839769 397697 976970 769707 
927601 119211 921147 114701 147019 470191 019121 912154 121544 154407 544071 440711 407112 711205 120594 949254 925437 437550 375509 755091 915972 597222 972221 722218 222188 221889 955881 144646 464677 467707 677073 707332 332208 322087 220873 087304 047564 475641 419686 968634 863471 634711 347110 471101 423986 398646 986464 864644 644607 607975 797546 975469 754691 469106 910644 064401 153645 454690 546900 469003 900396 039620 396204 962042 620428 042831 428316 831670 316703 167033 337489 987323 873231 323152 529603 960302 022845 228450 284502 022332 223326 332677 326772 267728 677282 728252 825292 529260 292603 926032 260321 321658 824641 182841 828416 284161 841617 617854 542203 422031 220313 203131 031311 131102 028722 287220 872201 722018 220183 183841 841441 417730 177308 397697 976970 769707 
276011 192114 211470 114701 147019 470191 701912 019121 191215 215440 544071 440711 407112 071120 112059 205949 254375 375509 755091 550915 972221 722218 222188 221889 218895 955881 558814 446467 646770 677073 770733 073322 322087 220873 208730 873047 475641 756419 196863 686347 863471 634711 347110 471101 711015 239864 986464 646446 446079 079754 975469 754691 546910 691064 106440 064401 644015 536454 546900 469003 690039 396204 962042 204283 042831 428316 283167 316703 167033 670337 374898 873231 732315 231529 296030 603022 228450 284502 845022 223326 233267 326772 267728 677282 772825 282529 252926 292603 926032 260321 603216 216585 824641 246418 182841 828416 284161 841617 416178 178542 422031 220313 203131 031311 313110 311028 287220 872201 722018 220183 201838 183841 838414 841441 414417 177308 773083 976970 
760111 921147 114701 147019 470191 701912 019121 191215 912154 544071 440711 407112 071120 711205 120594 755091 550915 509159 972221 722218 222188 955881 558814 588144 464677 467707 770733 707332 733220 220873 730475 475641 756419 564196 968634 863471 634711 347110 471101 711015 110153 864644 464460 460797 797546 754691 546910 469106 910644 064401 644015 440153 364546 469003 690039 900396 962042 620428 042831 428316 283167 167033 670337 703374 748987 873231 732315 323152 960302 030228 450223 267728 772825 728252 260321 603216 032165 165854 824641 246418 464182 182841 828416 284161 841617 416178 161785 785422 422031 220313 203131 031311 313110 131102 110287 872201 722018 220183 183841 838414 384144 841441 414417 144177 773083 730839 769707 
601119 211470 147019 470191 701912 019121 191215 912154 121544 440711 407112 071120 711205 112059 205949 375509 550915 509159 091597 722218 222188 221889 558814 588144 881446 646770 677073 707332 208730 304756 756419 564196 641968 686347 634711 347110 471101 711015 110153 101534 444239 646446 644607 446079 607975 975469 546910 469106 691064 106440 644015 440153 401536 645469 690039 900396 003962 620428 204283 428316 283167 831670 670337 703374 337489 732315 323152 231529 603022 302284 502233 677282 282529 603216 032165 321658 658548 246418 464182 641828 828416 284161 841617 416178 161785 617854 220313 203131 031311 313110 131102 311028 102872 722018 220183 201838 838414 384144 841441 414417 144177 441773 730839 308397 839769 
011192 114701 470191 701912 019121 191215 912154 121544 215440 407112 071120 711205 112059 120594 059492 755091 509159 091597 915972 159722 597222 222188 221889 218895 588144 881446 814464 707332 073322 087304 047564 564196 641968 419686 347110 471101 711015 110153 101534 015343 334442 442398 460797 079754 754691 469106 691064 910644 064401 440153 401536 015364 454690 900396 003962 039620 962042 042831 283167 831670 316703 033748 374898 898732 323152 231529 315296 960302 603022 030228 022845 284502 845022 022332 326772 677282 728252 825292 926032 032165 321658 216585 585482 464182 641828 418284 284161 841617 416178 161785 617854 178542 785422 203131 031311 313110 131102 311028 110287 102872 028722 220183 201838 018384 384144 841441 414417 144177 441773 417730 308397 083976 397697 
111921 147019 470191 701912 019121 191215 912154 121544 215440 154407 544071 440711 071120 711205 112059 120594 205949 594925 755091 550915 091597 915972 159722 597222 972221 221889 218895 188955 955881 881446 814464 144646 073322 733220 475641 641968 419686 196863 863471 634711 471101 711015 110153 101534 015343 153433 344423 423986 607975 754691 546910 691064 910644 106440 064401 401536 015364 153645 546900 003962 039620 620428 042831 831670 316703 167033 748987 987323 873231 231529 315296 152960 603022 030228 845022 450223 223326 267728 772825 282529 252926 260321 321658 216585 165854 854824 824641 641828 418284 182841 284161 841617 416178 161785 617854 178542 785422 854220 422031 203131 031311 313110 131102 311028 110287 102872 028722 287220 872201 201838 018384 183841 841441 414417 144177 441773 417730 177308 083976 976970 
119211 470191 701912 019121 191215 912154 121544 215440 154407 544071 440711 407112 711205 112059 120594 059492 949254 755091 550915 509159 915972 159722 597222 972221 722218 218895 188955 889558 955881 558814 814464 144646 733220 332208 475641 756419 419686 196863 863471 634711 347110 471101 711015 110153 101534 015343 153433 444239 239864 079754 754691 546910 469106 910644 106440 064401 644015 015364 153645 469003 039620 396204 204283 042831 428316 316703 167033 489873 873231 732315 315296 152960 529603 030228 302284 450223 502233 233267 677282 728252 825292 529260 260321 603216 216585 165854 548246 824641 246418 418284 182841 828416 284161 841617 416178 161785 617854 178542 854220 542203 422031 220313 203131 031311 313110 131102 311028 110287 102872 287220 872201 722018 018384 183841 838414 841441 414417 144177 417730 177308 839769 769707 
192114 701912 019121 191215 912154 121544 154407 440711 407112 071120 112059 120594 594925 949254 492543 550915 509159 091597 159722 597222 972221 722218 222188 188955 895588 558814 588144 814464 144646 332208 322087 087304 047564 756419 564196 196863 968634 634711 347110 471101 711015 110153 101534 153433 534334 343344 433444 442398 239864 398646 986464 864644 079754 797546 546910 469106 691064 910644 106440 644015 440153 015364 153645 536454 690039 396204 962042 042831 428316 283167 167033 703374 898732 732315 323152 152960 296030 302284 022845 502233 022332 332677 772825 282529 252926 292603 603216 032165 165854 854824 482464 246418 464182 418284 182841 828416 284161 841617 416178 161785 617854 178542 542203 422031 220313 203131 031311 313110 131102 110287 102872 872201 722018 220183 018384 183841 838414 384144 414417 144177 177308 397697 
921147 019121 191215 912154 121544 215440 154407 407112 071120 711205 120594 205949 949254 492543 925437 509159 091597 915972 972221 722218 222188 221889 955881 588144 881446 144646 446467 464677 467707 322087 220873 873047 475641 564196 641968 968634 686347 347110 471101 711015 110153 101534 015343 343344 433444 334442 423986 398646 986464 864644 646446 644607 460797 797546 975469 469106 691064 910644 106440 440153 401536 153645 364546 900396 962042 620428 428316 283167 831670 670337 033748 748987 987323 323152 231529 529603 960302 022845 228450 022332 223326 233267 332677 326772 728252 825292 529260 926032 032165 321658 658548 548246 824641 464182 641828 182841 828416 284161 841617 416178 161785 178542 422031 220313 203131 031311 313110 131102 311028 110287 028722 722018 220183 201838 183841 384144 841441 414417 144177 441773 308397 397697 976970 769707 
211470 191215 912154 121544 215440 154407 544071 071120 711205 112059 205949 059492 925437 254375 437550 091597 915972 222188 221889 218895 881446 814464 446467 464677 646770 677073 733220 220873 208730 730475 756419 641968 419686 863471 347110 471101 711015 110153 101534 015343 153433 433444 334442 344423 239864 986464 646446 464460 446079 607975 975469 546910 691064 910644 106440 064401 401536 015364 536454 645469 454690 546900 039620 620428 204283 283167 831670 316703 703374 337489 489873 231529 315296 152960 296030 228450 284502 223326 233267 332677 326772 267728 282529 252926 529260 292603 260321 321658 216585 585482 482464 246418 641828 418284 828416 284161 841617 416178 161785 617854 785422 854220 220313 203131 031311 313110 131102 311028 110287 102872 287220 220183 201838 018384 838414 841441 414417 144177 441773 417730 083976 976970 
114701 912154 121544 215440 154407 544071 440711 711205 112059 120594 594925 254375 543755 375509 755091 915972 159722 972221 218895 188955 955881 814464 144646 464677 646770 467707 770733 332208 208730 087304 304756 475641 564196 419686 196863 863471 634711 471101 711015 110153 101534 015343 153433 534334 334442 344423 444239 864644 464460 644607 460797 079754 754691 469106 910644 106440 064401 644015 015364 153645 364546 454690 546900 469003 396204 204283 042831 316703 167033 033748 374898 898732 873231 315296 152960 529603 960302 284502 326772 267728 292603 260321 216585 165854 854824 824641 464182 418284 182841 284161 416178 161785 617854 178542 854220 542203 422031 203131 031311 313110 131102 311028 110287 102872 028722 872201 018384 183841 384144 841441 414417 144177 441773 417730 177308 839769 769707 
147019 121544 154407 544071 440711 407112 112059 120594 205949 949254 543755 437550 375509 755091 550915 509159 159722 597222 722218 221889 188955 558814 144646 446467 646770 467707 677073 707332 322087 087304 873047 047564 756419 641968 196863 634711 347110 711015 110153 101534 153433 343344 344423 444239 442398 646446 644607 446079 607975 797546 975469 546910 691064 106440 644015 440153 153645 645469 546900 469003 690039 962042 042831 428316 167033 337489 748987 987323 732315 231529 152960 296030 603022 845022 267728 677282 282529 926032 603216 165854 548246 246418 641828 182841 828416 841617 161785 617854 178542 542203 422031 220313 031311 313110 131102 311028 110287 102872 287220 722018 183841 838414 841441 414417 144177 441773 417730 177308 773083 730839 839769 397697 
470191 544071 440711 407112 071120 120594 059492 492543 437550 375509 755091 550915 509159 091597 972221 222188 218895 955881 588144 446467 464677 467707 677073 770733 073322 220873 873047 730475 475641 564196 419686 863471 634711 347110 471101 110153 433444 444239 442398 423986 464460 446079 460797 079754 975469 754691 469106 910644 064401 440153 401536 454690 469003 690039 900396 620428 042831 428316 283167 670337 374898 489873 873231 323152 315296 960302 030228 450223 677282 772825 825292 260321 032165 482464 824641 464182 418284 182841 284161 416178 178542 422031 220313 203131 031311 313110 131102 110287 872201 220183 183841 384144 841441 414417 144177 441773 417730 177308 773083 730839 308397 397697 976970 
701912 440711 407112 071120 711205 205949 059492 594925 755091 550915 509159 091597 915972 159722 597222 722218 221889 188955 558814 881446 770733 707332 073322 733220 208730 730475 304756 756419 641968 634711 347110 471101 711015 101534 334442 423986 607975 797546 754691 546910 691064 106440 644015 401536 546900 900396 003962 962042 204283 428316 831670 703374 748987 898732 732315 323152 231529 152960 960302 603022 302284 284502 845022 502233 022332 326772 677282 772825 728252 825292 252926 926032 603216 321658 585482 246418 464182 641828 828416 841617 161785 178542 785422 220313 203131 031311 313110 131102 311028 102872 028722 722018 201838 838414 841441 414417 441773 773083 730839 308397 083976 976970 769707 
019121 544071 440711 407112 071120 711205 112059 059492 594925 949254 755091 509159 091597 915972 159722 597222 972221 222188 218895 889558 955881 588144 814464 073322 733220 087304 047564 475641 564196 419686 863471 634711 347110 471101 711015 110153 015343 344423 239864 079754 754691 469106 910644 064401 440153 015364 469003 003962 039620 620428 042831 283167 316703 033748 489873 987323 873231 323152 231529 315296 529603 603022 030228 022845 845022 450223 022332 223326 267728 772825 282529 252926 529260 260321 032165 216585 854824 824641 464182 641828 418284 182841 284161 416178 617854 785422 854220 422031 203131 031311 313110 131102 311028 110287 028722 287220 872201 220183 018384 183841 384144 841441 414417 144177 417730 083976 839769 769707 
191215 440711 407112 071120 711205 112059 120594 594925 949254 492543 254375 543755 550915 091597 159722 597222 972221 722218 221889 218895 188955 895588 558814 881446 144646 733220 332208 730475 756419 641968 196863 634711 347110 471101 711015 110153 101534 153433 444239 398646 607975 797546 546910 691064 106440 644015 401536 153645 690039 396204 204283 428316 831670 167033 898732 873231 732315 231529 315296 152960 296030 030228 302284 022845 450223 502233 233267 677282 772825 728252 825292 529260 292603 603216 032165 321658 216585 165854 548246 246418 641828 418284 182841 828416 841617 161785 178542 854220 542203 220313 031311 313110 131102 311028 110287 102872 287220 872201 722018 201838 183841 838414 841441 414417 144177 441773 177308 397697 
912154 407112 071120 711205 112059 120594 949254 492543 925437 543755 437550 509159 915972 972221 722218 222188 218895 188955 889558 955881 558814 588144 814464 332208 322087 087304 304756 047564 564196 419686 968634 347110 471101 711015 110153 101534 015343 534334 343344 433444 442398 239864 986464 864644 079754 975469 469106 691064 910644 440153 015364 536454 900396 396204 962042 042831 283167 316703 703374 987323 732315 323152 315296 152960 960302 302284 022845 228450 502233 022332 332677 772825 728252 282529 252926 292603 926032 032165 321658 216585 165854 854824 482464 464182 418284 182841 284161 416178 617854 542203 422031 203131 313110 131102 311028 110287 102872 872201 722018 220183 018384 838414 384144 414417 144177 417730 976970 
121544 071120 711205 112059 120594 205949 949254 492543 925437 437550 375509 091597 159722 722218 222188 221889 188955 889558 895588 558814 588144 881446 814464 144646 322087 220873 087304 873047 047564 475641 641968 196863 968634 686347 471101 711015 110153 101534 015343 153433 534334 343344 433444 334442 423986 239864 398646 986464 864644 646446 079754 797546 691064 910644 106440 401536 015364 153645 536454 364546 396204 962042 620428 428316 831670 167033 703374 033748 323152 231529 152960 529603 302284 022845 228450 284502 022332 223326 326772 728252 282529 825292 529260 926032 321658 216585 165854 658548 854824 548246 482464 824641 641828 418284 182841 828416 841617 161785 617854 178542 422031 220313 031311 131102 311028 110287 102872 028722 722018 220183 201838 018384 183841 838414 384144 841441 144177 441773 177308 
215440 711205 112059 205949 059492 492543 925437 254375 437550 375509 755091 915972 222188 221889 218895 895588 955881 588144 881446 814464 144646 446467 646770 733220 220873 208730 873047 730475 475641 756419 419686 686347 863471 347110 711015 110153 015343 153433 343344 433444 334442 344423 239864 398646 986464 864644 646446 464460 797546 975469 546910 910644 106440 064401 015364 153645 536454 364546 645469 454690 546900 039620 962042 620428 204283 283167 831670 316703 033748 337489 231529 315296 152960 296030 022845 228450 284502 845022 223326 233267 267728 282529 825292 252926 529260 292603 260321 216585 165854 658548 585482 548246 482464 824641 246418 418284 182841 828416 284161 416178 617854 178542 785422 854220 220313 203131 313110 311028 110287 287220 220183 201838 018384 183841 838414 384144 841441 414417 417730 976970 
154407 112059 120594 059492 594925 925437 254375 375509 755091 550915 091597 159722 188955 955881 558814 881446 814464 144646 446467 464677 467707 332208 322087 087304 873047 730475 304756 756419 564196 196863 686347 863471 634711 471101 110153 101534 153433 534334 433444 334442 344423 444239 986464 864644 646446 464460 644607 460797 975469 754691 469106 106440 064401 644015 153645 536454 364546 645469 454690 546900 469003 396204 620428 204283 283167 316703 167033 670337 337489 374898 748987 152960 529603 960302 228450 284502 450223 233267 332677 252926 292603 165854 658548 585482 854824 482464 824641 246418 464182 182841 828416 284161 841617 161785 178542 785422 854220 542203 131102 110287 102872 872201 183841 838414 384144 841441 414417 144177 177308 308397 397697 769707 
544071 594925 949254 254375 543755 755091 550915 509159 915972 597222 972221 955881 558814 588144 814464 144646 446467 464677 646770 677073 322087 220873 873047 730475 304756 047564 475641 564196 641968 863471 634711 347110 471101 711015 534334 343344 334442 344423 444239 442398 864644 646446 464460 644607 446079 607975 754691 546910 691064 064401 644015 440153 536454 364546 645469 454690 546900 469003 690039 962042 204283 042831 831670 167033 703374 374898 748987 489873 873231 529603 296030 603022 284502 845022 502233 332677 326772 529260 926032 260321 585482 854824 548246 824641 246418 464182 641828 182841 284161 841617 416178 854220 542203 422031 203131 031311 311028 102872 872201 722018 183841 384144 841441 414417 144177 441773 773083 083976 976970 
440711 949254 492543 543755 437550 755091 550915 159722 972221 722218 955881 558814 144646 446467 464677 646770 467707 770733 220873 208730 730475 304756 047564 475641 756419 641968 419686 863471 634711 347110 471101 711015 110153 343344 433444 344423 444239 442398 423986 646446 464460 644607 446079 460797 079754 754691 546910 469106 910644 064401 644015 440153 401536 645469 454690 546900 469003 690039 900396 620428 042831 428316 316703 670337 033748 748987 489873 898732 873231 732315 960302 030228 845022 450223 326772 267728 260321 603216 548246 482464 824641 246418 464182 641828 418284 182841 828416 284161 841617 416178 161785 542203 422031 220313 203131 031311 313110 110287 028722 872201 722018 220183 183841 838414 841441 414417 144177 441773 417730 730839 839769 769707 
407112 059492 492543 437550 550915 509159 915972 159722 597222 722218 222188 558814 588144 446467 464677 467707 677073 707332 073322 208730 087304 304756 047564 475641 756419 564196 419686 634711 347110 471101 711015 110153 101534 433444 334442 444239 442398 423986 464460 446079 460797 607975 797546 546910 469106 106440 644015 440153 401536 454690 469003 900396 003962 962042 204283 428316 283167 167033 703374 337489 489873 898732 987323 732315 323152 960302 603022 302284 284502 845022 450223 502233 022332 326772 267728 677282 728252 825292 926032 603216 032165 585482 482464 246418 464182 418284 828416 284161 841617 416178 617854 178542 785422 422031 220313 203131 031311 313110 131102 102872 028722 287220 722018 220183 201838 838414 384144 414417 144177 441773 417730 177308 308397 397697 
071120 594925 437550 375509 509159 091597 159722 597222 972221 222188 221889 588144 881446 646770 677073 770733 073322 733220 208730 087304 873047 047564 475641 564196 641968 347110 471101 711015 110153 101534 015343 344423 464460 079754 975469 546910 469106 691064 106440 064401 440153 401536 015364 454690 546900 003962 039620 620428 042831 283167 831670 670337 033748 374898 987323 873231 323152 231529 152960 296030 603022 030228 022845 228450 845022 450223 022332 223326 267728 677282 772825 282529 252926 529260 260321 032165 321658 854824 464182 641828 284161 841617 416178 161785 178542 785422 854220 203131 031311 313110 131102 311028 028722 287220 872201 220183 201838 018384 384144 841441 144177 441773 417730 177308 773083 083976 976970 
711205 949254 254375 543755 375509 755091 550915 091597 915972 597222 972221 722218 221889 218895 188955 881446 814464 467707 770733 707332 733220 332208 087304 730475 756419 641968 419686 471101 711015 110153 101534 015343 444239 644607 607975 797546 754691 469106 691064 910644 064401 644015 401536 015364 153645 546900 469003 396204 204283 831670 316703 703374 748987 873231 732315 231529 315296 529603 960302 030228 302284 022845 284502 450223 502233 233267 677282 772825 728252 825292 529260 292603 603216 032165 321658 216585 548246 641828 418284 841617 416178 161785 617854 785422 854220 542203 031311 313110 131102 311028 110287 287220 872201 722018 201838 018384 841441 414417 441773 417730 177308 773083 730839 769707 
112059 492543 543755 437550 375509 755091 509159 915972 159722 972221 722218 222188 221889 218895 188955 889558 814464 144646 677073 332208 322087 873047 304756 756419 419686 196863 711015 110153 101534 015343 153433 444239 442398 446079 079754 975469 691064 910644 106440 644015 440153 015364 153645 536454 645469 469003 690039 962042 042831 316703 167033 337489 732315 323152 231529 315296 152960 296030 603022 302284 022845 228450 845022 502233 022332 332677 772825 728252 282529 252926 292603 926032 032165 321658 216585 165854 482464 418284 182841 416178 161785 617854 178542 542203 422031 313110 131102 311028 110287 102872 872201 722018 018384 183841 414417 144177 417730 177308 773083 730839 839769 
120594 925437 437550 375509 755091 550915 091597 159722 722218 222188 221889 218895 188955 889558 895588 558814 588144 814464 144646 770733 322087 220873 087304 730475 047564 564196 196863 968634 110153 101534 153433 534334 343344 433444 442398 423986 239864 986464 864644 460797 079754 797546 754691 691064 910644 106440 440153 401536 015364 153645 536454 364546 454690 690039 900396 396204 620428 428316 167033 670337 703374 374898 323152 231529 315296 152960 529603 960302 030228 302284 022845 228450 284502 450223 022332 223326 326772 728252 282529 825292 529260 926032 260321 321658 216585 165854 658548 854824 482464 824641 418284 182841 828416 161785 617854 178542 422031 220313 131102 110287 102872 028722 722018 220183 018384 183841 838414 384144 144177 177308 730839 308397 397697 
205949 254375 375509 755091 550915 509159 915972 222188 221889 218895 188955 895588 955881 588144 881446 144646 707332 220873 208730 873047 304756 475641 756419 641968 686347 101534 015343 343344 433444 334442 444239 423986 239864 398646 864644 646446 446079 607975 797546 975469 546910 910644 106440 401536 015364 153645 364546 645469 546900 690039 900396 003962 962042 204283 283167 703374 033748 337489 748987 231529 315296 152960 296030 603022 302284 022845 228450 284502 845022 502233 223326 233267 267728 282529 825292 252926 292603 260321 603216 216585 165854 658548 585482 548246 824641 246418 182841 284161 178542 785422 220313 203131 102872 287220 220183 201838 183841 384144 841441 730839 308397 083976 839769 976970 
059492 755091 550915 509159 091597 915972 159722 597222 218895 889558 955881 558814 881446 814464 446467 707332 073322 087304 730475 047564 756419 564196 419686 863471 015343 153433 433444 334442 344423 442398 239864 986464 646446 464460 460797 079754 975469 754691 469106 106440 064401 015364 153645 536454 645469 454690 469003 900396 003962 039620 962042 620428 042831 033748 337489 374898 489873 898732 323152 315296 152960 529603 960302 603022 030228 022845 228450 284502 845022 450223 022332 326772 677282 728252 825292 252926 529260 926032 032165 658548 585482 854824 482464 246418 464182 828416 178542 785422 854220 031311 131102 102872 028722 018384 838414 841441 414417 308397 083976 839769 397697 769707 
594925 550915 509159 091597 915972 159722 597222 972221 218895 188955 895588 558814 588144 814464 144646 464677 073322 733220 730475 304756 564196 641968 196863 634711 711015 534334 334442 344423 444239 423986 398646 864644 464460 644607 607975 797546 754691 546910 691064 064401 644015 153645 536454 364546 454690 546900 690039 003962 039620 396204 620428 204283 374898 748987 898732 987323 732315 231529 152960 529603 296030 603022 030228 022845 284502 845022 450223 502233 223326 267728 772825 282529 252926 529260 292603 260321 032165 216585 585482 854824 548246 824641 464182 641828 284161 161785 785422 854220 542203 311028 028722 287220 384144 414417 144177 083976 397697 976970 
949254 509159 915972 159722 597222 972221 722218 188955 889558 955881 558814 588144 814464 144646 446467 646770 733220 332208 087304 304756 047564 641968 419686 968634 347110 110153 101534 534334 343344 433444 344423 444239 442398 239864 986464 864644 646446 644607 446079 079754 975469 546910 469106 691064 910644 644015 440153 015364 536454 645469 546900 469003 900396 039620 396204 962042 204283 042831 703374 748987 489873 987323 873231 323152 315296 529603 960302 030228 302284 228450 845022 450223 502233 233267 677282 728252 825292 529260 926032 603216 321658 165854 854824 548246 482464 246418 641828 418284 841617 617854 854220 542203 110287 287220 872201 018384 838414 384144 841441 144177 441773 839769 976970 769707 
492543 091597 597222 972221 722218 222188 889558 895588 588144 881446 144646 446467 464677 467707 677073 770733 332208 322087 220873 873047 047564 475641 419686 196863 686347 471101 110153 101534 015343 153433 343344 433444 334442 344423 444239 442398 423986 398646 864644 646446 464460 446079 460797 797546 469106 691064 910644 106440 440153 401536 153645 364546 454690 469003 690039 396204 962042 204283 042831 428316 316703 167033 033748 489873 898732 987323 732315 231529 152960 529603 296030 302284 022845 284502 450223 502233 022332 332677 772825 282529 252926 292603 032165 216585 658548 548246 482464 824641 464182 418284 182841 416178 178542 542203 422031 220313 102872 872201 722018 220183 183841 384144 841441 414417 441773 417730 773083 397697 
925437 091597 915972 972221 722218 222188 221889 895588 955881 881446 814464 446467 464677 467707 770733 707332 322087 220873 208730 873047 730475 475641 756419 968634 686347 863471 101534 015343 153433 534334 433444 334442 344423 444239 423986 986464 646446 464460 644607 460797 975469 910644 106440 064401 401536 015364 536454 645469 690039 900396 962042 620428 042831 428316 283167 167033 670337 337489 748987 898732 987323 873231 323152 315296 529603 296030 960302 022845 228450 845022 502233 022332 223326 233267 332677 326772 728252 825292 529260 926032 321658 165854 585482 482464 824641 246418 828416 841617 785422 422031 220313 203131 110287 028722 722018 220183 201838 838414 841441 414417 144177 417730 730839 308397 397697 976970 769707 
254375 915972 159722 222188 221889 218895 188955 955881 558814 814464 144646 464677 646770 677073 707332 073322 220873 208730 087304 730475 304756 756419 564196 686347 863471 634711 711015 015343 153433 534334 343344 334442 344423 444239 442398 239864 864644 464460 644607 446079 607975 754691 064401 644015 015364 153645 364546 454690 900396 204283 428316 283167 831670 670337 703374 374898 489873 987323 732315 231529 152960 296030 960302 022845 228450 284502 450223 022332 223326 233267 332677 326772 267728 772825 282529 252926 292603 260321 032165 216585 658548 854824 824641 246418 464182 284161 416178 161785 854220 220313 203131 031311 102872 287220 220183 201838 018384 384144 414417 144177 441773 177308 308397 083976 976970 
543755 159722 597222 218895 188955 889558 558814 588144 144646 446467 646770 467707 770733 073322 733220 208730 873047 730475 304756 047564 564196 641968 863471 634711 347110 711015 110153 153433 534334 343344 433444 344423 444239 442398 423986 646446 644607 446079 460797 607975 079754 546910 644015 440153 153645 536454 645469 546900 003962 042831 283167 316703 703374 033748 748987 898732 873231 732315 323152 529603 603022 022845 228450 845022 502233 223326 233267 326772 267728 772825 728252 529260 603216 032165 321658 216585 165854 585482 548246 246418 641828 841617 161785 617854 542203 203131 313110 028722 183841 841441 144177 441773 417730 773083 083976 839769 769707 
437550 597222 188955 889558 895588 446467 464677 646770 467707 677073 707332 733220 332208 208730 087304 730475 304756 047564 475641 419686 634711 347110 471101 110153 101534 534334 433444 334442 444239 442398 423986 239864 464460 446079 460797 607975 079754 797546 546910 469106 106440 440153 401536 536454 364546 454690 546900 469003 039620 428316 831670 167033 033748 337489 489873 987323 732315 323152 231529 152960 296030 030228 228450 284502 450223 233267 332677 267728 677282 728252 282529 529260 032165 321658 216585 165854 658548 482464 464182 418284 416178 617854 178542 854220 422031 031311 313110 131102 287220 838414 414417 441773 417730 177308 730839 839769 397697 976970 
375509 972221 221889 889558 895588 955881 467707 677073 770733 073322 332208 322087 087304 873047 304756 047564 475641 756419 347110 471101 101534 015343 343344 334442 344423 444239 398646 644607 446079 079754 797546 975469 469106 064401 401536 015364 364546 645469 546900 469003 690039 396204 316703 670337 337489 374898 873231 323152 231529 315296 529603 960302 302284 284502 845022 332677 326772 677282 772825 282529 825292 292603 321658 216585 165854 658548 585482 178542 785422 542203 313110 131102 311028 872201 384144 177308 773083 730839 308397 839769 397697 976970 769707 
755091 972221 722218 218895 895588 955881 558814 677073 770733 707332 733220 322087 873047 730475 475641 756419 564196 863471 634711 471101 711015 015343 153433 442398 446079 460797 797546 975469 754691 691064 064401 644015 015364 153645 645469 454690 469003 690039 900396 962042 042831 167033 703374 374898 748987 873231 732315 315296 152960 296030 603022 845022 450223 772825 728252 825292 252926 926032 260321 165854 658548 585482 854824 824641 182841 284161 785422 854220 422031 203131 031311 311028 872201 722018 183841 841441 773083 730839 308397 397697 769707 
550915 722218 218895 188955 955881 558814 588144 770733 220873 730475 756419 564196 641968 634711 347110 711015 110153 153433 534334 423986 460797 607975 754691 546910 910644 644015 440153 153645 536454 454690 546900 690039 900396 003962 620428 428316 670337 748987 732315 152960 529603 960302 030228 022845 450223 502233 772825 252926 529260 260321 603216 032165 216585 658548 585482 854824 548246 246418 828416 841617 161785 854220 542203 220313 031311 313110 110287 722018 220183 838414 414417 730839 083976 976970 
509159 222188 221889 188955 889558 558814 588144 707332 208730 304756 756419 564196 419686 347110 471101 110153 101534 534334 444239 239864 446079 607975 079754 975469 546910 469106 106440 440153 401536 536454 645469 546900 469003 690039 900396 003962 039620 204283 283167 703374 337489 489873 323152 231529 529603 603022 302284 228450 502233 728252 282529 529260 603216 032165 321658 165854 585482 548246 464182 284161 416178 617854 542203 203131 313110 131102 102872 220183 201838 384144 144177 730839 308397 839769 769707 
091597 221889 218895 889558 895588 881446 446467 464677 467707 073322 322087 087304 873047 047564 564196 641968 196863 686347 471101 711015 101534 015343 442398 398646 644607 460797 079754 797546 754691 691064 064401 401536 015364 364546 454690 690039 900396 003962 039620 396204 042831 283167 831670 670337 033748 374898 748987 898732 231529 315296 296030 030228 022845 284502 022332 233267 332677 282529 825292 292603 032165 321658 216585 658548 641828 841617 161785 178542 031311 131102 311028 110287 028722 201838 018384 841441 414417 144177 441773 308397 083976 397697 769707 
915972 218895 188955 895588 955881 814464 464677 646770 677073 707332 073322 220873 730475 475641 641968 419686 968634 863471 711015 110153 015343 334442 423986 986464 446079 607975 975469 546910 910644 015364 645469 546900 900396 003962 962042 831670 316703 703374 748987 489873 898732 987323 323152 315296 152960 960302 603022 284502 845022 022332 332677 326772 677282 728252 825292 252926 926032 216585 165854 585482 464182 418284 416178 617854 178542 785422 313110 131102 311028 110287 102872 028722 018384 414417 144177 441773 417730 083976 976970 
159722 188955 889558 955881 558814 144646 646770 467707 770733 707332 073322 733220 208730 304756 756419 419686 196863 634711 110153 101534 153433 334442 344423 239864 460797 079754 754691 469106 106440 153645 454690 469003 003962 039620 962042 620428 316703 167033 033748 489873 898732 987323 323152 231529 152960 529603 960302 603022 030228 284502 845022 450223 022332 223326 326772 267728 677282 772825 728252 282529 825292 252926 529260 926032 260321 165854 658548 585482 854824 464182 641828 182841 161785 178542 785422 854220 131102 311028 110287 102872 028722 287220 183841 144177 441773 417730 177308 839769 769707 
597222 895588 558814 588144 467707 677073 707332 073322 733220 332208 087304 047564 564196 196863 347110 534334 334442 344423 444239 398646 607975 797546 546910 691064 536454 546900 690039 003962 039620 396204 962042 620428 204283 167033 337489 898732 987323 873231 323152 231529 315296 529603 296030 960302 603022 030228 302284 284502 845022 450223 502233 022332 223326 233267 326772 267728 677282 772825 728252 282529 825292 252926 529260 292603 926032 260321 603216 585482 854824 548246 464182 641828 418284 617854 178542 785422 854220 542203 131102 311028 110287 102872 028722 287220 872201 417730 177308 397697 
972221 955881 677073 770733 073322 733220 332208 322087 873047 475641 968634 863471 634711 471101 344423 444239 442398 986464 079754 975469 754691 910644 064401 900396 039620 396204 962042 620428 204283 042831 670337 374898 987323 873231 732315 231529 315296 152960 960302 603022 030228 302284 022845 845022 450223 502233 022332 223326 233267 332677 267728 677282 772825 728252 282529 825292 252926 529260 292603 926032 260321 603216 032165 854824 548246 482464 824641 641828 418284 182841 284161 178542 785422 854220 542203 422031 203131 031311 311028 110287 102872 028722 287220 872201 722018 183841 841441 177308 773083 976970 
722218 895588 558814 770733 707332 733220 332208 322087 220873 730475 756419 641968 634711 347110 711015 444239 442398 423986 797546 754691 546910 644015 396204 962042 620428 204283 042831 428316 703374 033748 374898 748987 873231 732315 323152 315296 152960 529603 030228 302284 022845 228450 450223 502233 022332 223326 233267 332677 326772 267728 677282 772825 728252 282529 825292 252926 529260 292603 926032 603216 032165 321658 658548 548246 482464 824641 246418 641828 418284 182841 828416 841617 416178 785422 854220 542203 422031 220313 031311 313110 311028 110287 102872 028722 287220 872201 722018 220183 201838 838414 414417 177308 773083 730839 769707 
222188 955881 588144 332208 322087 220873 208730 564196 641968 419686 347110 471101 110153 442398 423986 239864 469106 440153 962042 620428 204283 042831 428316 283167 033748 337489 374898 748987 732315 323152 231529 152960 529603 296030 030228 302284 022845 228450 284502 502233 022332 223326 233267 332677 326772 267728 677282 772825 728252 282529 825292 252926 529260 292603 926032 260321 032165 321658 216585 658548 585482 482464 824641 246418 464182 641828 418284 182841 828416 284161 416178 161785 542203 422031 220313 203131 313110 131102 311028 110287 102872 028722 287220 872201 722018 220183 201838 018384 384144 144177 177308 773083 
221889 558814 881446 322087 220873 208730 756419 641968 419686 196863 471101 711015 101534 444239 423986 239864 446079 975469 691064 401536 645469 690039 620428 204283 042831 428316 283167 831670 337489 374898 748987 489873 323152 231529 529603 296030 302284 022845 228450 284502 022332 223326 233267 326772 267728 677282 772825 728252 282529 825292 252926 529260 292603 926032 260321 321658 216585 165854 585482 854824 824641 246418 464182 641828 418284 182841 828416 284161 841617 161785 617854 422031 220313 203131 031311 131102 311028 110287 102872 028722 287220 722018 220183 201838 018384 183841 841441 441773 773083 730839 839769 
218895 588144 814464 220873 208730 730475 564196 419686 196863 968634 711015 110153 015343 442398 239864 398646 460797 607975 754691 910644 644015 015364 153645 454690 900396 204283 042831 428316 283167 316703 374898 748987 489873 898732 732315 231529 315296 296030 022845 228450 284502 223326 233267 267728 772825 728252 282529 825292 252926 292603 260321 032165 216585 165854 658548 854824 548246 246418 641828 418284 182841 828416 284161 416178 161785 617854 178542 220313 203131 313110 311028 110287 102872 028722 287220 220183 201838 018384 183841 838414 414417 417730 730839 308397 397697 
188955 881446 144646 208730 087304 730475 304756 641968 196863 968634 686347 711015 110153 101534 153433 423986 398646 986464 607975 079754 546910 106440 644015 440153 153645 536454 546900 003962 428316 283167 167033 748987 489873 898732 987323 732315 323152 152960 022845 228450 284502 772825 728252 282529 252926 032165 321658 216585 165854 658548 585482 548246 482464 418284 182841 828416 284161 161785 617854 178542 785422 131102 110287 102872 028722 287220 018384 183841 838414 384144 144177 177308 308397 083976 976970 
889558 814464 332208 087304 873047 304756 047564 641968 419686 686347 863471 110153 101534 442398 239864 986464 864644 079754 797546 469106 440153 401536 536454 364546 469003 039620 620428 283167 831670 033748 374898 489873 898732 987323 873231 323152 231529 529603 030228 228450 284502 845022 267728 728252 282529 825292 529260 321658 216585 165854 658548 585482 854824 482464 824641 246418 641828 182841 828416 284161 841617 416178 617854 178542 785422 854220 311028 287220 872201 722018 201838 183841 838414 384144 841441 177308 083976 839769 769707 
895588 332208 322087 873047 047564 475641 641968 419686 196863 863471 101534 015343 442398 423986 398646 864644 797546 975469 691064 401536 015364 364546 645469 690039 396204 620428 204283 831670 033748 337489 374898 748987 898732 873231 231529 315296 296030 030228 302284 284502 845022 267728 677282 282529 825292 292603 321658 216585 165854 658548 585482 854824 824641 246418 464182 641828 418284 828416 841617 416178 161785 178542 785422 854220 311028 110287 872201 722018 220183 201838 018384 838414 841441 177308 773083 839769 397697 
955881 322087 220873 475641 756419 419686 196863 968634 863471 634711 471101 015343 153433 423986 239864 986464 975469 754691 910644 064401 015364 153645 645469 454690 900396 962042 204283 042831 337489 374898 748987 489873 987323 873231 315296 152960 960302 302284 022845 845022 450223 677282 772825 825292 252926 926032 260321 216585 165854 658548 585482 854824 824641 464182 641828 418284 182841 284161 161785 617854 785422 854220 422031 203131 031311 110287 102872 872201 220183 201838 018384 183841 841441 773083 730839 976970 
558814 220873 208730 087304 047564 756419 564196 196863 968634 634711 347110 711015 101534 153433 534334 343344 433444 239864 398646 986464 864644 079754 754691 546910 691064 910644 644015 015364 153645 536454 454690 546900 396204 042831 428316 703374 374898 748987 489873 898732 732315 152960 529603 302284 022845 228450 450223 502233 772825 728252 252926 529260 603216 165854 658548 585482 854824 548246 482464 246418 641828 418284 182841 828416 841617 617854 178542 854220 542203 220313 031311 313110 102872 028722 722018 201838 018384 183841 838414 384144 414417 730839 308397 
588144 208730 087304 873047 047564 475641 564196 968634 686347 347110 471101 110153 101534 015343 534334 343344 433444 334442 239864 398646 986464 864644 646446 079754 797546 546910 469106 691064 910644 106440 440153 015364 153645 536454 364546 546900 396204 962042 428316 283167 703374 033748 748987 489873 898732 987323 323152 529603 302284 022845 228450 284502 502233 728252 282529 529260 032165 165854 658548 585482 854824 548246 482464 824641 464182 418284 182841 828416 284161 416178 617854 178542 785422 542203 203131 313110 131102 028722 287220 220183 018384 183841 838414 384144 841441 144177 308397 083976 
881446 087304 873047 730475 304756 475641 756419 564196 641968 419686 686347 863471 471101 711015 101534 015343 153433 343344 433444 334442 344423 423986 398646 986464 864644 646446 464460 797546 975469 469106 691064 910644 106440 064401 401536 153645 536454 364546 645469 900396 962042 620428 428316 283167 831670 033748 337489 489873 898732 987323 873231 231529 315296 022845 228450 284502 845022 223326 282529 825292 252926 603216 321658 658548 585482 854824 548246 482464 824641 246418 641828 182841 828416 284161 841617 161785 178542 785422 854220 031311 131102 311028 287220 872201 201838 183841 838414 384144 841441 414417 441773 083976 839769 
814464 087304 873047 730475 304756 047564 756419 564196 641968 419686 196863 968634 863471 634711 711015 110153 101534 015343 153433 534334 343344 433444 334442 344423 444239 239864 986464 864644 646446 464460 644607 079754 975469 754691 691064 910644 106440 064401 644015 015364 536454 364546 645469 454690 003962 396204 620428 204283 283167 831670 316703 703374 337489 374898 898732 873231 315296 152960 302284 228450 284502 845022 233267 825292 529260 032165 216585 165854 585482 854824 482464 824641 246418 464182 418284 828416 284161 841617 416178 617854 785422 854220 313110 311028 110287 872201 018384 838414 384144 841441 414417 144177 417730 839769 
144646 873047 304756 047564 475641 564196 641968 419686 196863 968634 686347 634711 347110 110153 101534 015343 153433 534334 343344 433444 334442 344423 444239 442398 423986 398646 864644 646446 464460 644607 446079 797546 754691 546910 469106 910644 106440 064401 644015 440153 401536 153645 364546 645469 454690 546900 900396 039620 962042 204283 042831 428316 831670 167033 033748 374898 748987 315296 152960 529603 022845 284502 845022 223326 332677 252926 292603 603216 321658 165854 658548 854824 548246 824641 246418 464182 641828 182841 828416 284161 841617 161785 178542 854220 542203 131102 110287 102872 183841 384144 841441 414417 144177 441773 177308 083976 397697 
446467 322087 873047 730475 047564 475641 756419 641968 419686 196863 686347 863471 347110 471101 153433 343344 433444 334442 344423 444239 442398 423986 239864 986464 646446 464460 644607 446079 460797 975469 546910 469106 691064 106440 064401 644015 440153 401536 015364 536454 645469 454690 546900 469003 003962 396204 620428 042831 428316 283167 316703 670337 337489 748987 489873 152960 296030 228450 845022 450223 233267 332677 326772 529260 926032 032165 216585 585482 548246 482464 246418 464182 641828 418284 828416 284161 841617 416178 785422 542203 422031 110287 838414 841441 414417 144177 441773 417730 308397 839769 397697 976970 769707 
464677 322087 220873 873047 730475 304756 475641 564196 419686 968634 686347 863471 634711 471101 534334 433444 334442 344423 444239 442398 423986 398646 864644 464460 644607 446079 460797 607975 754691 469106 910644 064401 644015 440153 401536 153645 364546 454690 469003 039620 962042 204283 428316 283167 831670 167033 670337 703374 374898 748987 489873 529603 960302 284502 450223 233267 332677 326772 267728 292603 260321 321658 165854 854824 482464 824641 464182 418284 284161 841617 416178 161785 854220 422031 110287 102872 384144 414417 144177 441773 417730 308397 083976 397697 976970 769707 
646770 733220 220873 208730 730475 304756 047564 756419 641968 196863 686347 863471 634711 347110 343344 344423 444239 442398 986464 646446 464460 644607 446079 460797 607975 079754 546910 691064 106440 644015 440153 536454 645469 454690 546900 690039 039620 396204 620428 042831 831670 316703 670337 703374 033748 748987 489873 898732 152960 296030 603022 228450 845022 332677 326772 267728 677282 529260 926032 603216 216585 658548 548246 246418 641828 841617 416178 161785 617854 854220 542203 313110 102872 028722 287220 841441 144177 441773 417730 083976 839769 976970 769707 
467707 332208 322087 208730 087304 873047 304756 047564 475641 564196 419686 968634 686347 863471 634711 347110 471101 433444 444239 442398 423986 864644 464460 644607 446079 460797 607975 079754 797546 469106 064401 440153 401536 364546 454690 546900 469003 396204 962042 428316 283167 316703 167033 670337 033748 337489 748987 489873 898732 987323 529603 960302 284502 450223 233267 332677 326772 267728 677282 292603 260321 165854 482464 464182 418284 841617 416178 161785 617854 542203 422031 131102 110287 028722 287220 872201 414417 144177 441773 417730 177308 308397 839769 397697 769707 
677073 322087 220873 087304 873047 730475 047564 475641 641968 196863 686347 863471 634711 347110 471101 711015 110153 015343 153433 344423 646446 644607 446079 607975 079754 797546 975469 691064 644015 440153 645469 469003 690039 962042 620428 204283 831670 316703 167033 670337 703374 337489 374898 489873 987323 873231 529603 296030 603022 845022 450223 502233 332677 326772 267728 677282 772825 292603 926032 603216 658548 641828 416178 617854 178542 542203 422031 220313 311028 102872 287220 872201 722018 220183 144177 441773 417730 177308 773083 083976 397697 976970 
770733 220873 208730 873047 730475 304756 475641 756419 196863 968634 634711 471101 711015 110153 101534 015343 153433 534334 344423 444239 460797 079754 797546 975469 754691 910644 440153 401536 469003 690039 900396 620428 204283 042831 316703 167033 670337 703374 033748 374898 748987 489873 898732 987323 873231 732315 529603 296030 960302 030228 450223 502233 022332 326772 267728 677282 772825 728252 292603 926032 260321 161785 178542 785422 542203 422031 220313 203131 110287 028722 872201 722018 220183 201838 441773 417730 177308 773083 730839 839769 976970 769707 
707332 208730 087304 730475 304756 047564 756419 968634 686347 347110 711015 101534 015343 153433 534334 343344 334442 444239 442398 607975 797546 754691 106440 401536 015364 690039 900396 003962 962042 204283 042831 428316 167033 670337 703374 337489 748987 898732 987323 873231 732315 323152 296030 960302 603022 302284 284502 845022 502233 022332 223326 326772 267728 677282 772825 728252 825292 926032 260321 603216 585482 464182 617854 178542 785422 422031 220313 203131 031311 131102 102872 028722 287220 722018 201838 018384 417730 177308 773083 730839 308397 397697 769707 
073322 087304 873047 047564 475641 686347 863471 471101 015343 153433 534334 343344 433444 334442 344423 442398 423986 079754 975469 064401 015364 153645 900396 003962 039620 962042 620428 042831 428316 283167 670337 703374 033748 374898 898732 987323 873231 732315 323152 231529 960302 603022 030228 022845 284502 845022 450223 022332 223326 233267 326772 267728 677282 772825 728252 282529 825292 252926 926032 260321 603216 032165 585482 854824 464182 641828 178542 785422 854220 220313 203131 031311 313110 131102 311028 102872 028722 287220 872201 018384 183841 177308 773083 308397 083976 976970 
733220 873047 730475 756419 863471 634711 347110 711015 153433 534334 343344 433444 334442 344423 444239 423986 239864 464460 797546 754691 546910 106440 153645 536454 454690 546900 003962 039620 396204 620428 204283 283167 831670 703374 033748 337489 748987 987323 873231 732315 323152 231529 315296 152960 296030 603022 030228 302284 228450 845022 450223 502233 223326 233267 332677 267728 677282 772825 728252 282529 825292 252926 529260 260321 603216 032165 854824 548246 641828 418284 785422 854220 542203 203131 031311 313110 131102 311028 110287 028722 287220 872201 722018 183841 838414 417730 773083 730839 083976 839769 976970 769707 
332208 730475 304756 641968 634711 347110 471101 534334 343344 433444 334442 344423 444239 442398 239864 398646 644607 469106 064401 536454 364546 546900 469003 039620 396204 962042 620428 204283 042831 831670 316703 033748 337489 374898 873231 732315 323152 231529 315296 152960 529603 960302 030228 302284 022845 284502 450223 502233 022332 233267 332677 326772 267728 677282 772825 728252 282529 825292 252926 529260 292603 603216 032165 321658 658548 548246 482464 246418 641828 418284 182841 416178 854220 542203 422031 031311 313110 131102 311028 110287 102872 287220 872201 722018 201838 838414 384144 177308 730839 308397 839769 397697 769707 
322087 304756 419686 686347 347110 711015 343344 334442 344423 442398 423986 398646 644607 446079 460797 691064 644015 364546 469003 690039 396204 962042 620428 204283 042831 428316 283167 316703 167033 670337 337489 374898 748987 732315 323152 315296 152960 529603 296030 603022 302284 022845 228450 845022 502233 022332 223326 233267 332677 326772 677282 772825 728252 282529 825292 252926 529260 292603 926032 032165 321658 216585 585482 482464 824641 464182 418284 182841 828416 841617 161785 542203 422031 220313 313110 311028 110287 102872 028722 872201 722018 220183 018384 384144 414417 144177 773083 308397 397697 769707 
220873 196863 863471 110153 015343 153433 344423 423986 239864 446079 460797 607975 910644 440153 469003 690039 900396 620428 204283 042831 428316 283167 831670 316703 167033 670337 703374 374898 489873 987323 323152 231529 529603 296030 960302 030228 022845 228450 284502 450223 502233 022332 223326 233267 332677 326772 267728 772825 728252 282529 825292 252926 529260 292603 926032 260321 321658 216585 165854 854824 824641 246418 641828 182841 828416 284161 416178 617854 542203 422031 220313 203131 110287 102872 028722 287220 722018 220183 201838 183841 144177 441773 773083 730839 083976 976970 
208730 968634 634711 347110 101534 153433 534334 444239 239864 398646 464460 460797 607975 079754 546910 106440 401536 454690 546900 690039 900396 003962 039620 204283 042831 428316 283167 831670 316703 167033 670337 703374 033748 748987 898732 873231 231529 152960 296030 603022 302284 228450 284502 502233 022332 223326 233267 326772 267728 728252 282529 252926 529260 292603 926032 260321 603216 216585 658548 548246 246418 418284 828416 284161 161785 178542 854220 422031 220313 203131 313110 102872 028722 287220 220183 201838 018384 838414 441773 417730 730839 308397 839769 976970 769707 
087304 968634 686347 347110 471101 101534 015343 534334 343344 433444 442398 239864 986464 864644 644607 607975 079754 797546 469106 691064 910644 064401 015364 536454 546900 469003 900396 003962 039620 396204 042831 428316 283167 316703 167033 670337 703374 033748 337489 489873 987323 732315 529603 960302 030228 302284 022845 284502 022332 223326 267728 677282 282529 292603 260321 032165 165854 585482 854824 482464 418284 182841 284161 617854 785422 542203 220313 031311 131102 028722 287220 872201 018384 183841 838414 384144 417730 177308 308397 083976 397697 769707 
873047 686347 863471 471101 711015 015343 153433 343344 433444 334442 423986 398646 864644 646446 644607 446079 460797 079754 797546 975469 691064 910644 106440 644015 153645 364546 469003 690039 003962 962042 283167 831670 167033 670337 703374 033748 374898 748987 898732 873231 323152 296030 603022 022845 845022 223326 233267 332677 677282 772825 825292 926032 603216 658548 854824 548246 824641 182841 828416 841617 178542 854220 422031 203131 313110 311028 110287 872201 722018 183841 838414 384144 841441 414417 144177 177308 773083 308397 083976 839769 397697 976970 769707 
730475 863471 634711 711015 110153 153433 534334 433444 334442 344423 239864 986464 646446 464460 446079 460797 607975 797546 975469 754691 910644 106440 064401 644015 440153 153645 536454 645469 690039 900396 039620 620428 831670 670337 703374 033748 337489 748987 489873 732315 231529 960302 030228 022845 228450 450223 233267 332677 326772 772825 728252 260321 032165 216585 585482 482464 246418 828416 416178 161785 785422 220313 031311 131102 110287 102872 722018 220183 838414 841441 414417 144177 441773 773083 730839 083976 839769 976970 769707 
304756 419686 634711 347110 110153 101534 534334 343344 334442 344423 444239 423986 398646 864644 646446 464460 644607 460797 607975 079754 797546 754691 469106 106440 064401 644015 440153 401536 536454 364546 454690 900396 003962 396204 204283 428316 316703 703374 033748 337489 374898 898732 323152 315296 603022 302284 228450 284502 502233 223326 332677 326772 267728 728252 252926 603216 321658 165854 854824 548246 824641 464182 828416 284161 161785 617854 854220 203131 313110 311028 102872 028722 201838 384144 414417 144177 441773 417730 308397 083976 839769 397697 769707 
047564 196863 968634 347110 101534 015343 534334 343344 433444 344423 444239 442398 239864 986464 864644 646446 464460 644607 446079 607975 079754 797546 975469 546910 691064 910644 064401 644015 440153 401536 015364 536454 364546 645469 546900 003962 039620 396204 042831 283167 167033 703374 033748 337489 748987 987323 231529 152960 030228 302284 022845 284502 845022 022332 233267 267728 677282 282529 529260 032165 216585 165854 658548 854824 548246 482464 246418 641828 418284 284161 841617 617854 178542 542203 031311 028722 287220 018384 838414 384144 841441 144177 441773 417730 177308 083976 839769 397697 
475641 968634 686347 863471 634711 471101 015343 343344 433444 334442 444239 442398 423986 398646 864644 646446 464460 644607 446079 460797 079754 797546 975469 754691 469106 910644 106440 064401 440153 401536 015364 153645 364546 645469 454690 469003 039620 962042 042831 428316 831670 670337 033748 374898 489873 873231 315296 529603 022845 845022 450223 332677 677282 772825 825292 292603 260321 321658 165854 658548 585482 548246 482464 824641 464182 418284 182841 284161 841617 416178 178542 785422 422031 203131 031311 872201 183841 384144 841441 414417 441773 417730 177308 773083 397697 976970 
756419 686347 863471 634711 347110 711015 153433 433444 334442 344423 444239 986464 646446 464460 446079 797546 975469 754691 546910 106440 064401 644015 153645 536454 645469 454690 546900 690039 396204 620428 428316 316703 703374 337489 748987 732315 231529 152960 296030 228450 450223 326772 772825 728252 282529 252926 926032 603216 216585 658548 585482 854824 482464 246418 828416 841617 416178 785422 854220 220313 031311 313110 722018 838414 841441 414417 773083 730839 839769 976970 769707 
564196 863471 634711 347110 471101 110153 534334 334442 344423 444239 442398 423986 398646 864644 646446 464460 644607 460797 797546 754691 546910 469106 064401 644015 440153 401536 536454 364546 454690 546900 469003 900396 962042 204283 428316 283167 167033 374898 323152 315296 529603 960302 284502 502233 223326 267728 825292 252926 529260 260321 603216 032165 165854 585482 854824 548246 824641 464182 828416 284161 416178 161785 854220 542203 203131 313110 131102 220183 384144 414417 144177 308397 083976 397697 769707 
641968 634711 347110 471101 711015 101534 343344 344423 444239 442398 423986 239864 986464 646446 464460 644607 446079 607975 975469 546910 691064 644015 440153 401536 015364 645469 546900 690039 003962 620428 042831 283167 831670 670337 033748 374898 748987 231529 152960 603022 030228 845022 233267 267728 677282 252926 529260 603216 032165 321658 658548 548246 482464 246418 641828 284161 841617 416178 161785 617854 542203 031311 131102 311028 722018 201838 841441 144177 441773 177308 083976 839769 976970 
419686 471101 711015 110153 015343 433444 444239 442398 423986 239864 398646 864644 646446 464460 644607 446079 460797 079754 797546 754691 469106 910644 440153 401536 015364 153645 364546 454690 469003 900396 039620 204283 428316 831670 316703 337489 748987 489873 315296 529603 302284 450223 223326 332677 677282 252926 529260 292603 603216 321658 216585 585482 548246 482464 824641 464182 418284 828416 841617 416178 161785 617854 422031 313110 311028 110287 220183 018384 414417 441773 417730 773083 083976 839769 397697 769707 
196863 110153 101534 015343 153433 344423 239864 398646 986464 646446 464460 446079 797546 975469 546910 691064 106440 440153 015364 153645 536454 645469 546900 469003 690039 003962 396204 204283 042831 283167 316703 167033 374898 489873 898732 987323 152960 529603 296030 022845 450223 502233 233267 326772 772825 529260 292603 926032 032165 216585 165854 854824 482464 246418 641828 182841 284161 416178 161785 617854 178542 542203 220313 131102 110287 102872 220183 201838 183841 144177 441773 177308 773083 730839 839769 397697 976970 
968634 101534 153433 534334 343344 433444 444239 239864 398646 986464 864644 464460 644607 460797 079754 975469 754691 469106 691064 910644 064401 401536 015364 153645 536454 364546 454690 469003 690039 900396 039620 396204 962042 042831 428316 831670 167033 670337 703374 748987 898732 987323 873231 529603 296030 960302 302284 228450 502233 022332 332677 267728 728252 292603 926032 260321 321658 165854 658548 854824 548246 482464 824641 464182 418284 828416 841617 161785 617854 178542 422031 203131 028722 201838 018384 838414 384144 417730 730839 308397 397697 976970 769707 
686347 015343 534334 343344 433444 334442 442398 398646 986464 864644 646446 644607 446079 460797 607975 797546 546910 691064 910644 106440 644015 015364 153645 536454 364546 645469 546900 690039 900396 396204 962042 620428 428316 283167 316703 670337 703374 033748 748987 489873 987323 732315 296030 960302 603022 022845 284502 022332 223326 233267 332677 326772 677282 282529 926032 260321 603216 216585 658548 585482 548246 482464 824641 246418 641828 182841 284161 841617 416178 617854 178542 785422 220313 031311 110287 287220 018384 183841 384144 841441 414417 144177 177308 308397 083976 397697 976970 769707 
863471 153433 343344 433444 334442 344423 423986 986464 864644 646446 464460 446079 460797 607975 975469 754691 469106 106440 064401 153645 536454 364546 645469 469003 003962 962042 620428 042831 283167 831670 167033 703374 033748 337489 489873 898732 873231 323152 960302 603022 228450 845022 223326 233267 332677 326772 267728 825292 260321 603216 165854 585482 854824 482464 824641 246418 464182 182841 828416 284161 841617 416178 161785 785422 854220 422031 203131 031311 313110 102872 872201 183841 838414 841441 414417 144177 441773 773083 083976 839769 976970 769707 
634711 534334 433444 334442 344423 444239 239864 864644 646446 464460 644607 460797 607975 079754 754691 546910 691064 064401 644015 536454 364546 645469 454690 690039 039620 620428 204283 042831 428316 831670 316703 670337 033748 337489 374898 898732 873231 732315 231529 603022 030228 284502 233267 332677 326772 267728 677282 260321 603216 032165 658548 854824 824641 246418 464182 641828 182841 828416 284161 841617 161785 617854 854220 422031 220313 203131 031311 313110 131102 028722 872201 722018 183841 838414 384144 841441 414417 144177 441773 417730 730839 839769 769707 
347110 343344 334442 344423 444239 442398 398646 646446 464460 644607 446079 607975 797546 546910 469106 106440 644015 440153 364546 645469 454690 546900 039620 396204 042831 428316 283167 831670 316703 167033 337489 374898 748987 987323 732315 323152 315296 152960 296030 302284 228450 845022 332677 326772 267728 677282 529260 603216 032165 321658 548246 246418 464182 641828 828416 284161 841617 416178 617854 854220 542203 220313 203131 031311 313110 131102 311028 287220 722018 220183 838414 384144 841441 414417 144177 441773 417730 177308 308397 397697 976970 
471101 433444 444239 442398 423986 464460 644607 446079 460797 079754 975469 754691 469106 691064 064401 440153 401536 454690 546900 469003 396204 042831 428316 283167 831670 316703 670337 374898 489873 873231 323152 231529 529603 960302 284502 450223 677282 772825 292603 260321 032165 321658 482464 824641 464182 641828 418284 182841 284161 841617 416178 161785 178542 542203 422031 203131 031311 313110 131102 311028 872201 220183 201838 183841 384144 841441 414417 144177 441773 417730 177308 773083 976970 769707 
711015 446079 607975 797546 754691 546910 691064 910644 644015 401536 015364 153645 469003 690039 962042 428316 831670 316703 167033 703374 748987 732315 231529 315296 296030 603022 022845 845022 772825 728252 926032 603216 032165 321658 216585 246418 641828 418284 828416 841617 416178 161785 617854 785422 422031 220313 031311 313110 131102 311028 110287 722018 201838 018384 838414 841441 414417 441773 417730 773083 730839 769707 
110153 344423 460797 079754 469106 910644 106440 440153 015364 153645 536454 469003 690039 900396 620428 204283 283167 316703 167033 670337 489873 987323 323152 315296 152960 529603 960302 030228 228450 450223 502233 728252 292603 260321 032165 321658 216585 165854 464182 418284 182841 284161 416178 161785 617854 178542 542203 220313 203131 313110 131102 311028 110287 102872 220183 018384 183841 384144 414417 144177 441773 417730 177308 773083 730839 
101534 444239 239864 986464 864644 607975 079754 797546 691064 910644 106440 401536 015364 153645 536454 364546 690039 900396 003962 396204 204283 042831 831670 167033 670337 703374 898732 873231 231529 152960 296030 603022 302284 284502 502233 022332 282529 926032 603216 321658 216585 165854 658548 854824 482464 641828 418284 182841 841617 161785 617854 178542 422031 203131 031311 131102 311028 110287 102872 201838 018384 183841 838414 384144 841441 144177 441773 417730 177308 730839 308397 
015343 344423 442398 398646 864644 646446 079754 797546 975469 910644 106440 064401 440153 015364 153645 364546 645469 469003 900396 003962 039620 962042 204283 042831 428316 316703 167033 670337 703374 033748 489873 987323 732315 315296 529603 960302 030228 022845 845022 450223 502233 022332 223326 825292 292603 260321 032165 216585 165854 658548 585482 548246 824641 418284 182841 416178 617854 178542 785422 542203 220313 031311 313110 311028 110287 028722 220183 018384 183841 384144 841441 414417 441773 417730 177308 773083 308397 083976 
153433 444239 423986 986464 646446 464460 975469 754691 106440 064401 440153 401536 153645 536454 645469 454690 469003 690039 003962 620428 204283 042831 283167 316703 167033 670337 703374 033748 337489 489873 898732 987323 873231 323152 152960 529603 296030 603022 228450 450223 502233 022332 223326 233267 252926 292603 926032 603216 165854 658548 585482 854824 482464 246418 182841 828416 161785 178542 785422 854220 542203 422031 220313 203131 313110 131102 110287 102872 220183 201838 183841 838414 841441 414417 144177 441773 417730 177308 773083 730839 083976 
534334 442398 239864 986464 864644 464460 644607 079754 754691 546910 691064 910644 064401 644015 401536 015364 536454 364546 454690 546900 690039 900396 039620 396204 204283 042831 428316 831670 167033 670337 703374 033748 337489 374898 898732 987323 873231 732315 231529 529603 296030 960302 030228 302284 284502 502233 022332 223326 233267 332677 529260 926032 260321 032165 165854 585482 854824 548246 482464 824641 464182 418284 284161 617854 854220 542203 422031 220313 203131 031311 131102 201838 018384 838414 384144 414417 144177 417730 177308 730839 308397 839769 
343344 423986 239864 398646 986464 864644 646446 644607 446079 079754 797546 546910 691064 910644 106440 644015 440153 015364 153645 536454 364546 645469 546900 900396 003962 396204 962042 042831 428316 283167 316703 670337 703374 033748 337489 374898 748987 987323 873231 732315 323152 315296 960302 603022 302284 022845 845022 022332 223326 233267 332677 326772 260321 603216 321658 165854 658548 854824 548246 482464 824641 246418 641828 418284 182841 841617 617854 178542 542203 220313 203131 031311 313110 311028 018384 183841 838414 384144 841441 144177 441773 177308 773083 308397 083976 397697 
433444 239864 398646 986464 864644 646446 464460 446079 460797 079754 797546 975469 469106 691064 910644 106440 064401 440153 401536 015364 153645 536454 364546 645469 454690 469003 003962 039620 396204 962042 620428 428316 283167 831670 703374 033748 337489 489873 873231 732315 323152 231529 603022 030228 302284 022845 228450 450223 223326 233267 332677 603216 032165 165854 658548 585482 854824 548246 482464 824641 246418 464182 418284 182841 828416 416178 617854 178542 785422 422031 203131 031311 313110 131102 018384 183841 838414 384144 841441 414417 441773 417730 773083 730839 083976 839769 
334442 398646 986464 864644 646446 464460 644607 797546 975469 754691 910644 106440 064401 644015 153645 536454 364546 645469 454690 003962 039620 396204 962042 620428 204283 831670 316703 033748 337489 374898 898732 732315 323152 231529 315296 960302 603022 030228 302284 022845 228450 284502 845022 022332 233267 332677 326772 677282 728252 825292 926032 032165 321658 658548 585482 854824 548246 482464 824641 246418 464182 182841 828416 284161 178542 785422 854220 031311 313110 131102 311028 102872 028722 183841 838414 384144 841441 414417 144177 730839 308397 839769 397697 
344423 986464 864644 646446 464460 644607 446079 975469 754691 546910 106440 064401 644015 440153 536454 364546 645469 454690 546900 469003 039620 396204 620428 204283 042831 316703 167033 337489 374898 748987 489873 987323 323152 231529 315296 529603 603022 030228 302284 228450 284502 845022 450223 502233 223326 332677 326772 267728 772825 282529 252926 292603 260321 321658 585482 854824 548246 482464 824641 246418 464182 641828 828416 284161 841617 785422 854220 542203 220313 313110 311028 028722 287220 220183 838414 384144 841441 414417 144177 441773 773083 308397 397697 
444239 864644 646446 464460 644607 446079 460797 975469 754691 546910 469106 064401 644015 440153 401536 364546 645469 454690 546900 469003 690039 396204 204283 042831 428316 167033 670337 337489 374898 748987 489873 898732 873231 231529 315296 296030 030228 302284 284502 845022 450223 502233 022332 233267 677282 728252 282529 825292 529260 926032 603216 854824 548246 482464 824641 246418 464182 641828 418284 284161 841617 416178 854220 542203 422031 203131 110287 287220 872201 201838 384144 841441 414417 144177 441773 417730 730839 839769 
442398 646446 464460 644607 446079 460797 754691 546910 469106 644015 440153 401536 015364 645469 454690 546900 469003 900396 962042 620428 042831 428316 670337 703374 033748 374898 748987 489873 987323 732315 315296 152960 960302 030228 302284 022845 845022 450223 502233 022332 223326 332677 267728 772825 282529 825292 252926 292603 260321 032165 321658 658548 548246 482464 246418 464182 641828 418284 182841 841617 416178 542203 422031 220313 031311 311028 102872 872201 722018 201838 018384 841441 414417 144177 441773 417730 177308 308397 397697 
423986 464460 446079 460797 607975 797546 546910 469106 440153 401536 153645 364546 454690 546900 469003 900396 003962 620428 204283 428316 283167 703374 033748 337489 748987 489873 873231 323152 315296 152960 529603 603022 302284 022845 228450 450223 022332 223326 233267 326772 677282 728252 825292 252926 529260 926032 603216 321658 216585 585482 548246 482464 824641 464182 418284 828416 416178 161785 422031 220313 203131 313110 110287 028722 722018 220183 018384 183841 414417 441773 417730 773083 083976 976970 
239864 079754 975469 469106 691064 910644 015364 536454 645469 469003 003962 039620 396204 204283 042831 283167 831670 703374 033748 337489 374898 489873 732315 231529 152960 529603 296030 030228 302284 022845 228450 284502 223326 233267 332677 267728 772825 282529 252926 529260 292603 260321 032165 216585 165854 854824 482464 246418 641828 418284 182841 284161 617854 220313 203131 031311 131102 102872 287220 220183 201838 018384 183841 838414 384144 730839 839769 769707 
398646 797546 754691 469106 691064 910644 106440 401536 153645 364546 454690 690039 900396 039620 396204 962042 428316 831670 316703 033748 337489 374898 748987 898732 323152 315296 529603 296030 302284 022845 228450 223326 332677 326772 728252 252926 292603 603216 321658 658548 548246 824641 418284 182841 828416 841617 178542 313110 311028 028722 018384 183841 838414 384144 841441 308397 083976 397697 
986464 079754 975469 546910 691064 910644 106440 064401 015364 536454 645469 546900 900396 003962 396204 962042 620428 283167 316703 703374 337489 489873 987323 152960 296030 960302 302284 228450 284502 233267 326772 282529 529260 926032 032165 216585 165854 585482 854824 482464 246418 418284 182841 828416 284161 416178 617854 785422 287220 018384 183841 838414 384144 841441 414417 083976 839769 976970 
864644 079754 797546 754691 469106 691064 910644 106440 064401 644015 015364 153645 536454 364546 454690 469003 039620 396204 962042 204283 831670 167033 703374 033748 374898 898732 873231 529603 960302 302284 022845 284502 845022 332677 267728 825292 292603 260321 321658 165854 658548 854824 548246 482464 824641 464182 418284 182841 828416 284161 841617 161785 617854 178542 854220 872201 018384 183841 838414 384144 841441 414417 144177 839769 397697 769707 
646446 797546 975469 546910 469106 691064 910644 106440 064401 644015 440153 401536 153645 536454 364546 645469 546900 690039 900396 396204 962042 620428 042831 428316 316703 670337 033748 337489 748987 315296 296030 603022 022845 228450 845022 223326 326772 677282 252926 926032 603216 216585 658548 585482 548246 482464 824641 246418 641828 182841 828416 841617 416178 617854 178542 785422 542203 183841 838414 384144 841441 414417 144177 441773 083976 976970 
464460 975469 754691 546910 469106 691064 106440 064401 644015 440153 401536 015364 536454 364546 645469 454690 546900 469003 003962 039620 962042 620428 204283 428316 283167 831670 167033 337489 374898 489873 152960 296030 960302 228450 284502 450223 233267 267728 529260 260321 032165 165854 585482 854824 482464 824641 246418 464182 418284 828416 284161 416178 161785 785422 854220 422031 313110 287220 838414 384144 841441 414417 144177 441773 417730 839769 976970 769707 
644607 754691 546910 469106 691064 910644 064401 644015 440153 153645 364546 645469 454690 546900 469003 690039 039620 396204 620428 204283 042831 283167 831670 316703 670337 374898 748987 529603 960302 603022 284502 845022 233267 332677 677282 292603 603216 321658 658548 854824 548246 824641 246418 464182 641828 284161 841617 617854 854220 542203 131102 110287 872201 384144 841441 414417 144177 441773 177308 308397 397697 769707 
446079 546910 469106 691064 106440 644015 440153 401536 536454 645469 454690 546900 469003 690039 396204 962042 042831 428316 831670 316703 167033 703374 337489 748987 489873 231529 296030 603022 845022 450223 332677 326772 282529 926032 216585 548246 482464 246418 464182 641828 418284 841617 416178 542203 422031 311028 102872 722018 841441 414417 144177 441773 417730 773083 730839 083976 839769 976970 
460797 469106 910644 064401 440153 401536 364546 454690 469003 690039 900396 962042 620428 428316 283167 316703 167033 670337 033748 374898 748987 489873 898732 315296 960302 030228 450223 233267 332677 326772 267728 825292 260321 165854 482464 464182 418284 841617 416178 161785 422031 220313 110287 028722 220183 414417 144177 441773 417730 730839 308397 839769 397697 769707 
607975 691064 106440 644015 401536 153645 645469 546900 690039 900396 003962 620428 204283 831670 167033 670337 703374 337489 748987 489873 987323 732315 152960 603022 302284 022845 502233 332677 326772 267728 677282 772825 252926 603216 032165 216585 658548 641828 416178 161785 617854 203131 102872 287220 201838 144177 441773 417730 177308 308397 083976 397697 976970 
079754 691064 910644 064401 440153 015364 536454 469003 003962 039620 396204 042831 316703 670337 703374 033748 374898 489873 898732 873231 323152 529603 030228 302284 022845 228450 022332 326772 267728 677282 772825 728252 529260 032165 321658 165854 854824 482464 418284 161785 617854 178542 031311 028722 872201 018384 838414 384144 441773 417730 177308 773083 083976 839769 976970 769707 
797546 910644 106440 401536 153645 364546 690039 900396 396204 962042 428316 167033 703374 033748 337489 748987 898732 987323 732315 231529 315296 296030 022845 284502 223326 267728 677282 772825 728252 282529 252926 292603 603216 216585 658548 548246 824641 182841 828416 617854 178542 785422 287220 722018 183841 384144 841441 417730 177308 773083 730839 083976 397697 769707 
975469 106440 064401 015364 536454 645469 690039 900396 003962 962042 620428 283167 670337 337489 374898 987323 873231 231529 315296 152960 960302 228450 845022 233267 677282 772825 282529 825292 529260 926032 032165 165854 585482 482464 246418 828416 284161 178542 785422 872201 838414 841441 414417 177308 773083 730839 839769 976970 
754691 064401 644015 153645 364546 454690 900396 039620 204283 042831 831670 703374 374898 748987 873231 732315 315296 152960 529603 284502 450223 332677 772825 728252 825292 252926 292603 260321 321658 658548 854824 824641 464182 182841 284161 841617 785422 854220 422031 203131 031311 872201 722018 183841 384144 841441 414417 144177 773083 730839 308397 397697 769707 
546910 644015 440153 536454 645469 454690 546900 003962 039620 396204 042831 428316 831670 316703 748987 732315 152960 529603 296030 228450 845022 502233 326772 252926 529260 926032 603216 216585 585482 548246 246418 641828 828416 841617 416178 854220 542203 220313 031311 313110 287220 722018 838414 841441 414417 144177 441773 417730 083976 976970 
469106 440153 401536 364546 454690 546900 469003 900396 039620 396204 962042 428316 283167 316703 167033 489873 323152 315296 529603 960302 284502 450223 223326 267728 252926 529260 292603 260321 603216 032165 165854 548246 482464 464182 418284 828416 284161 416178 161785 542203 422031 203131 313110 131102 872201 220183 384144 414417 144177 441773 417730 177308 083976 839769 769707 
691064 401536 015364 536454 645469 469003 690039 003962 396204 962042 620428 283167 831670 167033 670337 703374 898732 231529 152960 296030 603022 302284 845022 233267 677282 529260 292603 926032 603216 032165 321658 165854 658548 854824 482464 641828 418284 284161 841617 161785 617854 422031 031311 131102 311028 722018 201838 018384 838414 384144 841441 441773 773083 839769 397697 
910644 015364 153645 536454 364546 454690 690039 900396 039620 396204 962042 620428 831670 316703 670337 703374 033748 987323 315296 529603 960302 030228 302284 022845 450223 332677 292603 926032 260321 321658 216585 165854 658548 854824 548246 482464 824641 418284 182841 841617 416178 617854 178542 220313 313110 311028 110287 220183 018384 183841 838414 384144 841441 414417 417730 730839 397697 976970 
106440 153645 536454 364546 645469 454690 546900 900396 003962 039620 396204 962042 620428 204283 831670 316703 167033 703374 033748 337489 152960 296030 603022 302284 022845 228450 502233 326772 529260 926032 603216 216585 165854 658548 585482 548246 482464 824641 246418 182841 828416 416178 161785 178542 785422 854220 203131 313110 131102 110287 102872 287220 201838 183841 838414 384144 841441 414417 144177 417730 177308 308397 976970 
064401 536454 364546 645469 454690 546900 469003 003962 039620 396204 962042 620428 204283 042831 316703 167033 033748 337489 374898 873231 529603 960302 030228 022845 228450 284502 022332 267728 292603 260321 032165 165854 585482 854824 482464 824641 246418 464182 182841 828416 284161 161785 785422 854220 542203 422031 203131 031311 131102 028722 872201 018384 183841 838414 384144 841441 414417 144177 177308 083976 769707 
644015 364546 645469 454690 546900 469003 690039 962042 620428 204283 042831 428316 167033 670337 374898 748987 732315 296030 603022 022845 284502 845022 677282 772825 926032 603216 032165 216585 658548 854824 548246 824641 246418 464182 641828 828416 284161 841617 161785 617854 854220 542203 422031 220313 031311 313110 311028 722018 838414 384144 841441 414417 144177 441773 773083 
440153 645469 454690 546900 469003 690039 900396 620428 204283 042831 428316 283167 316703 167033 670337 748987 489873 987323 323152 529603 960302 030228 228450 845022 450223 502233 728252 292603 260321 032165 321658 165854 548246 482464 246418 464182 641828 418284 284161 841617 416178 617854 542203 422031 220313 203131 313110 131102 110287 220183 384144 841441 414417 144177 441773 417730 773083 730839 
401536 454690 469003 690039 900396 003962 204283 042831 428316 831670 167033 670337 703374 489873 898732 873231 231529 315296 296030 603022 302284 284502 450223 502233 022332 223326 282529 252926 926032 603216 321658 216585 658548 548246 482464 464182 641828 418284 828416 841617 416178 161785 178542 422031 203131 031311 131102 311028 102872 201838 841441 414417 441773 417730 730839 308397 083976 
015364 900396 003962 039620 396204 042831 428316 283167 316703 670337 703374 033748 987323 732315 315296 152960 960302 030228 302284 022845 845022 022332 223326 233267 825292 529260 260321 032165 216585 165854 585482 854824 482464 418284 284161 416178 617854 785422 220313 031311 313110 311028 110287 028722 018384 838414 384144 414417 417730 177308 308397 083976 839769 
153645 003962 039620 962042 283167 831670 167033 703374 033748 873231 732315 323152 152960 529603 603022 022845 450223 223326 233267 332677 772825 252926 292603 603216 032165 321658 216585 165854 658548 854824 548246 824641 182841 841617 161785 178542 854220 203131 313110 131102 110287 102872 183841 384144 841441 144177 177308 773083 083976 397697 
536454 039620 396204 620428 831670 316703 703374 033748 337489 732315 323152 231529 529603 296030 030228 302284 228450 502233 233267 332677 326772 728252 529260 926032 032165 321658 216585 165854 585482 854824 548246 482464 246418 418284 828416 416178 617854 785422 542203 031311 131102 018384 838414 384144 841441 414417 730839 839769 976970 
364546 900396 396204 962042 204283 428316 316703 167033 033748 337489 374898 323152 231529 315296 960302 302284 022845 284502 223326 332677 326772 267728 282529 252926 260321 603216 321658 216585 165854 658548 854824 548246 824641 464182 182841 828416 284161 161785 178542 854220 313110 311028 183841 384144 841441 414417 144177 308397 083976 397697 769707 
645469 003962 620428 042831 283167 670337 337489 748987 231529 315296 152960 603022 228450 845022 233267 677282 282529 825292 529260 603216 032165 165854 658548 585482 548246 482464 246418 641828 828416 284161 841617 617854 785422 542203 838414 841441 414417 144177 441773 730839 839769 
454690 039620 204283 428316 831670 374898 489873 315296 152960 529603 296030 228450 284502 450223 332677 825292 252926 529260 292603 321658 658548 854824 482464 824641 464182 418284 284161 841617 416178 854220 422031 313110 287220 384144 414417 144177 441773 417730 308397 397697 976970 
546900 396204 042831 831670 316703 748987 152960 529603 296030 960302 228450 284502 845022 502233 326772 252926 529260 292603 926032 216585 585482 548246 246418 641828 841617 416178 854220 542203 313110 131102 287220 872201 841441 144177 441773 417730 177308 083976 976970 769707 
469003 962042 204283 428316 316703 167033 489873 987323 529603 296030 960302 603022 284502 845022 450223 502233 267728 529260 292603 926032 260321 165854 482464 464182 418284 416178 161785 542203 422031 220313 131102 311028 872201 722018 220183 414417 441773 417730 177308 773083 839769 769707 
690039 620428 042831 167033 670337 337489 898732 873231 231529 296030 960302 603022 030228 845022 450223 502233 022332 677282 282529 292603 926032 260321 603216 658548 641828 617854 422031 220313 203131 311028 110287 722018 220183 201838 417730 773083 730839 839769 397697 
900396 204283 428316 670337 703374 374898 987323 732315 315296 960302 603022 030228 302284 450223 502233 022332 223326 825292 252926 926032 260321 603216 548246 828416 220313 203131 031311 110287 102872 220183 201838 018384 177308 730839 308397 083976 397697 976970 
003962 042831 283167 703374 033748 748987 898732 873231 323152 152960 960302 603022 030228 302284 022845 284502 845022 502233 022332 223326 233267 326772 677282 728252 825292 252926 529260 926032 603216 032165 585482 482464 464182 284161 178542 785422 203131 031311 313110 131102 102872 028722 201838 018384 183841 773083 308397 083976 839769 976970 
039620 831670 033748 337489 489873 987323 732315 231529 152960 529603 296030 603022 030228 022845 228450 845022 450223 022332 223326 233267 332677 267728 772825 282529 252926 529260 292603 260321 032165 321658 854824 824641 641828 841617 785422 854220 031311 313110 131102 311028 028722 287220 018384 838414 417730 730839 083976 839769 397697 976970 769707 
396204 316703 703374 337489 374898 898732 873231 323152 315296 529603 296030 960302 030228 302284 284502 450223 502233 233267 332677 326772 677282 728252 825292 529260 292603 926032 603216 321658 216585 165854 854824 548246 482464 246418 418284 416178 617854 854220 542203 313110 131102 311028 110287 287220 872201 018384 838414 384144 177308 308397 397697 976970 769707 
962042 167033 033748 898732 987323 732315 323152 152960 296030 960302 603022 302284 022845 284502 845022 502233 022332 332677 326772 267728 677282 772825 728252 282529 825292 252926 292603 926032 260321 032165 165854 658548 585482 548246 482464 824641 464182 182841 161785 178542 785422 542203 422031 131102 311028 102872 028722 872201 722018 183841 384144 841441 773083 976970 769707 
620428 670337 033748 337489 374898 987323 323152 231529 529603 960302 603022 030228 022845 228450 845022 450223 022332 223326 326772 267728 677282 772825 728252 282529 825292 252926 529260 926032 260321 603216 321658 658548 585482 854824 482464 824641 246418 641828 828416 416178 617854 785422 854220 422031 220313 311028 110287 028722 287220 722018 220183 201838 838414 841441 414417 177308 730839 
204283 167033 703374 337489 374898 748987 489873 987323 873231 231529 315296 529603 296030 603022 030228 302284 228450 284502 450223 502233 223326 233267 267728 677282 728252 282529 825292 252926 529260 292603 260321 603216 216585 585482 854824 548246 824641 246418 464182 418284 284161 161785 854220 542203 220313 203131 110287 102872 287220 872201 220183 201838 018384 384144 414417 144177 441773 773083 308397 
042831 670337 033748 374898 748987 489873 898732 873231 732315 152960 296030 030228 302284 022845 845022 502233 022332 332677 772825 282529 252926 292603 926032 260321 032165 165854 854824 548246 482464 824641 246418 641828 182841 284161 841617 617854 542203 422031 203131 031311 102872 028722 872201 722018 201838 018384 183841 841441 144177 441773 417730 730839 083976 
428316 703374 748987 489873 898732 987323 732315 323152 315296 529603 960302 022845 228450 450223 022332 223326 326772 728252 825292 252926 529260 926032 260321 603216 321658 658548 548246 482464 824641 246418 464182 418284 828416 841617 416178 178542 422031 220313 031311 313110 028722 722018 220183 018384 838414 414417 441773 417730 177308 308397 083976 
283167 033748 748987 489873 987323 873231 323152 231529 152960 296030 603022 228450 284502 223326 233267 332677 267728 282529 252926 529260 292603 260321 603216 032165 216585 585482 482464 246418 464182 182841 284161 841617 416178 785422 220313 203131 313110 131102 110287 287220 220183 201838 183841 384144 414417 144177 773083 308397 083976 839769 397697 769707 
