090669 096649 690039
906695 966492 900396
066955 188955
669557 269927 889558 769707
695574 699276 895588 691064
955749 205949 955881 975469
557495 059492 550915
574957 594925
749577 748987 144177 769707
495775 441773
957750 992760 437550 417730
577502 375509 597222 284502 677282 178542 177308
775029 375509 755091 975469 845022 772825 785422 773083
750293 755091 770733 754691 450223
502939 205949 509159 502233
029398 059492 442398 022332
293987 269927 423986 283167 748987 233267
939878 239864 489873
398786 304756 398646 898732
987862 986464 987323
878620 071120 039620 831670 854220
786200 711205 733220 546900 396204 287220
862001 863471 064401 469003 962042 422031 872201
620019 601119 147019 644015 690039 620428 220313 722018
200191 760111 470191 900396 260321 284161 203131 220183
001911 601119 111921 701912 003962 031311
019115 011192 119211 019121 711015 032165 313110
191150 192114 191215 071120 110153 131102
911509 711205 375509 231529
115096 112059 755091 315296
150966 550915 152960 252926
509664 509159 239864 529603 529260
096649 398646
966492 326992 059492 986464 962042 960302 926032
664928 269927 594925 641968 620428 267728 641828
649283 699276 949254 204283 677282 542203
492834 192114 492543 042831 482464 422031
928343 921147 015343 428316 987323 220313
283432 153433 283167 284502 585482 785422 203131
834326 534334 223326 854824 854220
343269 343344 444239 645469 233267
432699 442398 454690 332677
326992 323152 326772 825292 926032
269927 267728 252926 260321 769707
699276 603216
992760 152960
927601 529603 824641
276011 296030 246418
760111 470191 440711 260321
601119 701912 407112 509159 603216
011192 019121 071120 059492 091597 131102
111921 019121 311028
119211 019121 191215 110287
192114 191215 912154
921147 121544 925437
211470 215440 831670 228450
114701 154407 634711 064401 316703
147019 112059 347110 446079 644015 167033
470191 440711 475641 471101 460797 440153
701912 407112 707332 711015 003962
019121 071120 039620
191215 711205 711015 161785
912154 112059 949254 110153 910644 617854
121544 120594 101534 178542
215440 205949 015343 106440 228450
154407 153433 644607 064401 414417 144177
544071 446079 644015 144177
440711 634711 460797 440153 441773
407112 707332 347110 464182
071120 073322 471101 039620
711205 711015
112059 110153
120594 101534
059492 159722
594925 550915 597222
949254 079754
492543 797546 292603
925437 975469 926032
437550 417730
375509 975469
755091 955881 754691
550915 558814 546910
091597 397697
915972 976970
159722 028722
597222 677282 287220
972221 873231 772825 872201
722218 332208 732315 728252 722018
222188 322087 722018 220183
221889 220873 231529 220183 201838
218895 216585
558814 854824 838414
588144 548246 384144
881446 646446 828416 841441
814464 986464 864644 464460 015364 854824 482464 838414 414417
144646 398646 864644 646446 644607 153645 364546 548246 824641 144177
446467 986464 646446 464460 446079 645469 482464 246418 414417
464677 864644 464460 644607 460797 454690 332677 464182 414417 144177
646770 646446 446079 546910 546900 326772 441773 976970
467707 460797 469106 469003 267728 417730 769707
677073 607975 167033 677282 773083
770733 670337 773083 730839
707332 703374 022332
073322 003962 603022 022332 223326 028722
733220 039620 030228 233267 854220 287220
332208 396204 030228 302284 332677 542203 872201
322087 302284 332677 422031 722018
220873 489873 220313 220183
208730 898732 296030 228450 203131 201838 417730
087304 015364 987323 018384 177308
873047 873231 773083
730475 732315 730839
304756 364546
047564 015364
475641 471101 824641
756419 246418
564196 469106 364546 464182
641968 691064 645469 641828
419686 423986 469106 418284
968634 864644 910644
686347 646446 670337
863471 064401 873231 841441
634711 644015 031311
347110 546910 313110
471101 469106 131102 872201
711015 644015 732315 311028 722018
110153 440153 110287 220183
101534 401536 201838
015343 015364 018384
153433 153645 167033
534334 536454
343344 703374 384144
433444 536454 033748 482464 838414
334442 364546 337489 384144
444239 446079
423986 428316 223326 083976
239864 233267 839769
398646 797546 364546 548246 397697
986464 975469 536454 482464
864644 910644 364546 854824 824641 384144
646446 106440 645469 548246 246418 841441
464460 064401 454690 482464 464182 414417
644607 644015 841617 144177
446079 416178 441773
460797 769707
797546 364546
975469 645469
754691 454690 824641
546910 546900 246418 976970
469106 469003 464182 769707
691064 690039
440153 450223 220183 441773
401536 201838
015364 018384
153645 183841
536454 838414
364546 384144
454690 854220
546900 542203 976970
469003 167033 489873 529603 769707
690039 670337 296030 730839
900396 960302 308397
003962 603022 083976
039620 831670 030228
396204 316703 302284
962042 960302 926032
620428 030228 641828
204283 302284 502233 220183
042831 022845 022332 182841 422031
428316 223326 828416 220313
283167 233267 284161 203131
831670 332677 841617
316703 326772
033748 030228
489873 441773
898732 028722
987323 287220
873231 203131 872201
732315 772825 032165 031311 722018
323152 326772 728252 321658 313110
231529 282529
315296 825292
152960 252926
529603 529260 292603 542203
296030 926032
960302 260321
603022 845022 603216
030228 450223
302284 502233 418284
022845 022332 772825 032165 182841
228450 728252 828416
284502 282529 284161
845022 825292 785422
450223 854220
502233 542203
022332 926032 422031 028722
223326 252926 260321 220313
332677 397697
326772 926032 028722
267728 260321 287220
728252 028722
282529 287220
292603 542203
926032 422031
260321 220313
321658 311028
165854 617854
658548 178542
585482 785422
854824 854220
548246 542203
824641 841441
641828 311028 201838
418284 110287 018384
182841 102872 183841
828416 838414
284161 203131 384144
841617 841441
854220 287220
542203 872201
422031 722018
220313 220183
203131 201838
<------------Next-300-Signals------------>
548761 580763 446731 648730 248712
487612 382712 086212 436012 467314 355612 487306 487125
876129 827125 862125 833169 556124
761298 271258 561242
612983 712587 716183 512643 612420
129838 125879 405838 161833 126436
298387 281087 058389
983873 583897 982643 353773 464873
838737 838975 537735 648730
387373 878373 389753 306273 353773 377355 487306
873738 783735 673518 805538 273488 873063
737382 837354 735185 789362 763982 734884 730632
373827 373540 583897 773557
738271 838975 234171 301271 735570
382712 389753 086212 341712 012716 386202 313512 355612 248712 712512
827125 988125 862125 417124 127161 227245 862025 487125
271258 881254 621257 245058 171244 271618 272458 273488 244248 871251
712587 812545 518507 212574 712446 716183 724580 773557 442487 712512
125879 125452 185071 125743 926279 424871
258798 228108 262790 248712
587988 527348
879881 572281 390881 871251
798812 722810 908811 248712 712512
988125 862125 928685 088119 487125
881254 837354 621257 601234 171244 351264 881193 646254 884504 871251
812545 862125 212574 012341 712446 862025 512643 811935 462540 712512
125452 125743 123417 124467 025942 126436 397452 625402
254520 292920 450580 264360 724580 259424 974524 254023
545205 735405 343245 505807 245805 745247 540235 124205
452057 354058 432450 458055 452471 402355 242052 442487
520572 540583 530292 620862 580553 420527
205722 208621 205273 248712
572281 871251
722810 724580 712512
108783 125743 167713
087837 583897 047567 071437
878373 838975 475673 574343 873063
783735 756735 743432 433135 537735
837354 567351 434324 467314 331351 377355
373540 273170 673518 343245 673144 313512 773557 462540
735405 731704 735185 731444 245805 735570 625402
354058 351850 245058 458055 339088 254023
540583 450580 580763 580553 540235
405838 505807 805538
058389 058076 055386 088119
583897 505807 553862
838975 811935
389753 580763 580553 119353 353773
897530 893620 807639 805538 193537
975302 973012 935377 625402
753029 254023
530292 331692 557092 540235 561242 730632
302929 316928 306324
029292 086212 025942 709262
292920 893620 092627 262790 612420
929207 936208 621257 926279 124205
292072 212574 852272 242052
920721 522724 420527
207213 507143 707893 227245 243313 167713 205273
072130 273170 071437 078936 677133 052734
721306 731704 771339 627906 487306
213062 973012 553862 313512 279069 242052 873063
130627 730127 538620 135126 110167 101677 092627 420527 730632
306273 301271 386202 353773 926279 205273 306324
062731 012341 446731 012716 016771 262790 052734
627317 621257 123417 467314 627906 527348
273170 234171 673144 247160 273488
731704 731444 734884
317047 314441
704756 524716
047567 247160 046487
475673 244673 471601 205273 464873
756735 446731 537735 052734
567351 467314 497301 331351 377355 527348
673518 673144 973012 271618 313512 773557 273488
735185 730127 716183 433135 135126 735570 734884
351850 331351 351264
518507 505807
850714 052734 450464
507143 707893 574343 594243 512643 677133 527348 504648
071437 078936 771339 046487
714370 264360 724580 713390 735570
143707 643601 123417 133908 193537
437078 436012 339088
370789 390881 355709
078936 058076 570926
789362 709262
893620 538620 092627 790690
936208 386202 133908 926279 906906
362086 169286 862025 339088
620862 692868 553862 620259 625402
208621 538620 908811
086212 436012 286852 386202 088119
862125 360123 868522 862025 064625 487125
621257 601234 685227 620259 646254 871251
212574 202594 712512
125743 025942 167713
257434 259424 052734 450464
574343 594243 512643 527348 504648
743432 763982 942433 730632
434324 417124 467314 444164 424331 974524 734884 306324 324424
343245 227245 745247 540235 348845 063244 244248
432450 272458 452471 462540 402355 612420 488450 632442 442487
324505 724580 124205 884504 324424
245058 272458 245805 242052 845046 244248
450580 724580 462540 420527 450464
505807 245805
058076 458055 055386 011016
580763 580553
807639 805538
639826 135126
398264 351264
982643 942433 512643
826436 126436
264360 264369 247160 262790
643601 643693 471601 601101
436012 973012 436939 716011
360123 730127 160110
601234 171244 301271 351264 601101 646254
012341 712446 314441 012716 618331 512643 016771
123417 124467 144416 183316 126436 193537
234171 244673 235561 424871
341712 331692 313512 355612 248712
417124 467314 444164 556124 487125
171244 673144 731444 351264 561242 063244 871251
712446 731444 314441 012716 512643 612420 632442 712512
124467 144416 127161 126436 110167 124205 324424
244673 164973 243313 643693 254023 205273 464873 244248
446731 649730 424331 436939 016771 648730
467314 497301 167713 487306
673144 693974 677133 063244
731444 734884 632442
314441 324424
144416 183316 126436 524716
444164 247160 450464
441649 471601
416497 046487 442487
164973 161833 167713 464873
649730 648730
497301 424331 471601 487306
973012 313512 873063
730127 135126 110167 420527 730632
301271 331351 351264 601101 101677 205273 871251
012716 524716 011016 016771 052734 712512
127161 247160 110167
271618 272458 471601 273488
716183 716011
161833 167713 464873
618331 424331 648730
183316 243313 487306
833169 433135 873063
331692 331351 355612 730632
316928 306324
286852 386202 242052
868522 862025
685227 745247
852272 452471
522724 524716 556124 052734 324424
227245 124205 527348 244248
272458 242052 273488
724580 735570 734884
245805 348845
458055 402355 488450
553862 557092
862025 064625
620259 926279 646254
202594 262790
025942 625402
259424 254023 556124 450464 324424
594243 512643 561242 504648 244248
942433 442487
424331 424871
243313 643693 248712
433135 436939 537735 487125
331351 377355 871251
313512 355612 712512
351264 450464
512643 504648
264369 279069
939745 537735
397452 377355
974524 884504 324424
745247 845046 244248
452471 450464 442487 424871
471601 871251
716011 016771 712512
160110 167713
713390 790690
537735 540235
377355 402355
773557 023556
735570 235561
355709 355612
709262 906462
092627 064625
262790 462540
627906 625402 487306
279069 873063
790690 730632
069064 063244
625402 632442
556124 306324
561242 063244
612420 632442
242052 248712
527348 504648
504648 244248
046487 442487
464873 424871
648730 248712
487306 487125
<------------Next-300-Signals------------>
256492 252502 272292 256156 287792 486432
564923 877923 864326
649232 779231 643265
492325 499435 722925 792312
923252 143452 022212 229259 953372 923121
232525 434520 222122 722925 292593 337225
325250 345203 705550 229259 372256
252502 292272 055504 222122 272292 292593
525021 555043 923121
250218 980318 231216 657618
502181 803184 902221 511781 532751 576182
021817 031843 022212 121697
218172 292272 018902 222122 108272 216974
181727 184347 189022 185117 082722 121697
817273 227293 827229 819353 885243 877923 804373 618263
172737 272937 452037 182638
727374 729378 520377 504374 802374
273745 293789 214345 203770 043742 023748
737453 437420 237481
374533 374201 374819 159533
745333 441433 345203 925933 748193 595337 447933
453334 414338 452037 259335 953372 479331
533340 161340 593358 933580 533722 524390 589370 638330 383300
333404 318434 434704 613407 335802 893704 383300 833003
334046 338516 347044 134077 937048 330031
340464 318434 347044 340773 370486 300314
404644 434704 504374 704864
046441 043742 043731 048643
464414 434704
644143 949943 962143 748193 444793 658043 048643
441433 499435 621434 481935 439033 444793 447933 486432
414338 214345 479331
143385 143452 643265
433851 291851 532751 432657
338516 918511 327511 231216 326576
385162 435962 185117 335802 800162 312169
851623 701613 359621 851178 358023 001620 877923
516236 016134 596214 580237 511946 016209
162369 161340 119469 162091 312169
623698 023748 194698 615678 121697 657618
236980 622980 933580 237481 946980 216974 716580
369803 229800 345203 335802 469800 165804 263833
698031 298008 698001 658043 638330 330031
980318 980087 980016 903328 300314
803184 899194 773194 802374 800162 893704 003147
031843 731949 048643 031470
318434 016134 319499 621434
184347 194907 161340 134077 214345 185117 974447
843470 143452 203770 744479 031470
434704 434520 037705 444793 893704 314705
347044 377055 697444 937048
470448 974447 370486
704486 744479 370486 704864
044862 043742 704864
448622 008722 048643
486229 087229 221229 827229 016209 486432
862298 872292 212291 272292 162091
622980 722922 122918 722925 946980 620915
229800 229227 201890 229185 229259 469800
298008 178108 698001
980087 949077 781082 580237 980016 580437
800872 890222 810827 108272 802374 800162 804373
008722 043742 018902 108272 082722 001620 533722
087229 077319 221229 082722 827229 016209 337225
872292 890222 022212 212291 272292 372256
722922 022212 222122 122918 082722 722925 722561 792312
229227 222122 221229 229185 827229 229259
292272 890222 022212 222122 212291 108272 272292 292593 792312
922729 902221 222122 221229 082722 827229 722925 328779 923121
227293 221229 212291 827229 272292 229259 292593 287792 205893
272937 270107 452037 272292 058937
729378 709558 520377 589370
293789 095589 203770 893704
937892 955899 335802 287792 437312 937048
378927 358023 877923 373120 058937
789270 779231 589370
892701 907701 532751 698001 893704
927010 077016 117810 327511 980016 937048
270107 770161 178108 275119
701070 701613 203770 705550 201890 781082 001620 031470
010709 037705 018902 016209 911509 314705
107095 377055 162091 115097
070955 377055 770555 620915
709558 770555 705550 209159
095589 055504 091595 120589
955899 205893
558991 150971 058937
589919 509716 589370
899194 773194 194994 751194 893704
991949 731949 949943 994359 511946 911509
919490 319499 119469
194907 134077 194994 194698
949077 134077 949943
490770 340773 203770
907701 407731 037705 902221
077016 077319 377055 980016
770161 773194 770555 800162 722561 779231
701613 001620
016134 016209 216974
161340 169744
134077 332877 115097
340773 345203 328779 444793
407731 447933 479331 043731
077319 374819 275119 437312
773194 748193 751194 373120
731949 511946 731205
319499 119469 312169
194994 194698
949943 962143 925933 946980 915953 243903 447933 048643
499435 259335 481935 439033 479331 486432
994359 593358
943596 933580
435962 335802 437312
359621 358023 331691
621434 697444
214345 259335 314705
143452 043742 193532
434520 437420 933580
345203 374201 335802 885243 243903
452037 550437 852439 439033 058937 432657
520377 550437 504374 580237 595337 524390 580437 589370
203770 201890
037705 337225 097165 731205 314705
377055 337225 372256 312058
705550 716580
055504 165804
555043 358023 885243 658043
550437 580237 595337 852439 580437 058937
504374 802374 524390 804373 589370 704864 300314
043742 082722 023748 533722 043731 048643 003147
437420 237481 337225 437312 031470
374201 374819 372256 779231 314705
742018 122918 792312 312058
420189 229185 120589
201890 291851 001620 205893
018902 016209 058937
189022 781082 082722
890222 810827 827229 800162 390332
902221 903328 923121
022212 082722 272292 792312
222122 082722 272292 722925 923121
221229 827229 229259 231216
212291 272292 292593 162091
122918 722925 620915 182638
229185 229259 259335 209159 225615 169115
291851 691150
918511 327511 316911 911509
185117 275119 169115 115097
851178 751194
511781 532751 511946
082722 533722 287792
827229 337225 877923
272292 372256 287792
722925 620915 722561
229259 209159
292593 091595 205893
925933 915953 447933
259335 159533 479331
593358 595337 903328 793316
933580 946980 033287 933169 716580
335802 332877 165804
358023 658043
580237 595337 580437
802374 804373 300314
023748 043731 003147
374819 275119
748193 751194 444793 048643
481935 447933 486432
819353 915953 804373 826383
193532 159533 390332
935327 595337 903328
353275 953372 337225 643265
532751 533722 432657
327511 722561 316911 326576
275119 209159 225615
119469 312169
194698 121697 182638
946980 716580
469800 165804
698001 658043
001620 031470
016209 911509
162091 115097
620915 225615
209159 256156
091595 097165
159533 439033
595337 390332 580437
953372 903328
337225 731205
372256 312058 370486
615678 657618
524390 589370
243903 447933 263833 833003
439033 447933 479331 833003 330031
390332 792312 330031 300314
903328 923121
033287 003147
332877 432657
328779 326576
877923 447933
779231 479331
792312 793316 437312
923121 933169 373120
231216 731205
312169 933169 312058
121697 331691 115097
216974 316911
169744 169115 165804
331691 330031
658043 048643 618263
580437 486432
804373 864326 826383
373120 383300
205893 263833
589370 383300
893704 833003
864326 761826
643265 618263
<------------Next-300-Signals------------>
622095 621290
220954 230404 780854
209540 304040 199560 253560 609850 808549 729590
095407 040407 995608 098507 085498 295907
954070 923040 304040 404070 956087 985071 959078
540706 040407 040708 542986 590786
407068 404070 407081 507108 907860 887078 707818 419078
070685 070819 560985 071086 278085 078606 870781 078180
706856 609850 710866 780854 707818
068561 098507 124561 618961
685614 245617 665854 189618
856148 850538 356098 456175 016128 726138 896189
561480 560985 561753 532780 161283 261384
614803 416883 612839 613842 618953
148035 168832 278085
480357 780854
803579 808549 713679
035798 040708 646798 085498 136791
357989 332189 467981 854986 367910
579892 538692 679817 549860
798927 098507 218967 798176 295907
989275 985071 189673 959078
892759 896733 072959 933759 724759 896189
927590 923040 729590 907860 621290 337596 247594
275908 995608 295907 212901 375963 475946
759085 956087 278085 959078 759633 759467
590850 560875 609850 780854 549860 590786
908505 098507 808549
085053 883253 985071 086673 013153 085498
850538 832535 850710
505386 542986 325356 154386 590786
053869 070819 253560 543869
538692 535609 438691 138422
386923 866973 086673 386912 384224 301933 375963 783723
869230 669730 866735 869124 837232
692304 697301 673384 679104 895324
923040 973016 953243
230404 730164
304040 301641 384190
040407 098507 841907
404070 419078
040708 646798 320778
407081 467981 207783
070819 679817 072959 077837
708199 798176 808549 128399
081995 085498 007295 283997 961895
819956 912456 854986 839971 818026 618953
199560 253560 124561 549860 729590 399710 189532
995608 535609 498600 295907 997106
956087 986697 356098 986007 959078
560875 560985 860072 961895
608754 609850 637154 600729 665854 618953
087542 189532
875429 895324
754298 356098 153278
542986 560985 842646 532780 854986 590786
429866 710866 321896 426467 549860 129016 434836 461896
298669 108667 218967 264679 498600 290161
986697 086673 986007 283997
866973 086673 866735 896733 860072 839971
669730 609850 866735 399710
697301 667356 617531 817601 997106 151301
973016 071086 176013 129016 971064 513019
730164 710866 637154 760131 780854 290161 130193
301641 371543 901612 301933
016416 912456 016128
164168 124561 104618
641688 646798
168832 131532 138422 963332 189532
688325 601315 633328
883253 013153 842243 953243 783723
832535 866735 131532 836215 802665 532433 837232
325356 667356 321896 315327 324338
253560 673562
535609 735623
356098 356236 646798 959078
560985 467981 590786 266585
609850 679817 549860 907860 665854
098507 498600 295907 078606 188707 658547
985071 986007 959078 887078 585471
850710 399710 870781 854717
507108 327808 997106 707818 547172
071086 278085 078606 971064 078180 791046
710866 780854 710647 180266 910461
108667 218967 188707 802665 104618
086673 189673 026658
866735 363715 896733 836215 266585
667356 637154 967338 665854 467136
673562 673384 613842 671367
735623 531523 772613 759633 783723
356236 315232
562363 561753 596333 532433
623637 723207
236371 839971 136791 232077
363715 399710 367910
637154 665854 679104
371543 531523 621513 301933 375963
715438 315232 085498 726138 215130
154386 152329 854986 151301
543869 549860 513019
438691 498600 483621 136791 433841
386912 786062 606212 367910
869124 860621 062129 679104 895324
691245 601315 621290 791046
912456 910461
245617 295907
561753 161283
617531 817601 612839 618961
175315 176013 601315 193375 172475
753152 733842 013153
531523 131532 621513 532433
315232 435332 315327 215130 837232
152329 353321 062129 128399 151301 372320
523294 533218 621290 723207
232943 212901 842243 532433 232077
329435 422434 324338
294353 224348 596333
943533 243483 963332 946713 953243
435332 131532 434836 963332 837232
353321 315327 483621 151301 633328 333281 372320
533218 153278 836215 513019 633328 333281 332818
332189 532780 062129 362151 333281 332818 328188 046189 896189 338419
321896 327808 621290 337596 461896 961895
218967 295907 212901 283997 618961 618953
189673 759633 189618 189532
896733 596333 946713 896189 190783
967338 963332 467136 324338 907837
673384 261384 633328 671367 679104 243384
733842 613842 781802 433841
338426 138422 337596 818026 338419
384264 384224 180266 384190
842646 842243 802665
426467 422434 759467
264679 594671 713679
646798 946713 136791
467981 467136 367910
679817 647877 671367 679104 077837
798176 997106 791046 778376
981760 907860 971064
817601 860621 212901 877261
176013 129016 772613 946713
760131 860621 290161 726138 362151 467136
601315 606212 901612 621513 671367
013153 016128 618953
131532 138422 189532 837232
315327 019337 895324 372320
153278 959078 106478 193375 953243
532780 590786 532433
327808 332818 328188 707818 324338 320778
278085 078180 266585
780854 781802 665854
808549 658547
085498 585471
854986 854717
549860 907860
498600 078606
986007 786062 188707
860072 860621 887078
072959 062129
729590 621290
295907 212901 283997 841907
959078 887078 419078
590786 870781 190783
907860 707818 907837
078606 078180 078372 778376
786062 781802
860621 483621 870781
606212 901612 836215
062129 016128 362151 046189
621290 621513
212901 618961
129016 189618
290161 910461
901612 104618
016128 726138 026658 046189
161283 261384 190783
612839 613842
283997 281887
399710 367910
997106 467136
971064 471724 671367
710647 717247 713679
106478 172475 104618
064787 854717
647877 547172 907837 077837
478772 471724 078372 778376
787726 783723
877261 870781 837232
772613 759633
726138 328188 026658 324338
261384 281887 266585 243384
613842 433841
138422 338419
384224 384190
842243 953243
422434 532433
224348 324338
243483 243384 207783
434836 467136 461896 433841
348362 078372
483621 433841 783723
836215 837232
513019 713679
130193 136791 190783
019337 077837
193375 172475
933759 724759
337596 247594
375963 475946
759633 759467
596333 532433
333281 433841
332818 707818 338419
328188 078180 324338 320778
281887 781802
818870 818026
887078 419078
870781 190783
707818 104618 907837
078180 046189 078372
585471 594671
717247 723207
247594 243384
467136 461896
324338 320778
190783 207783
907837 077837
078372 778376
<------------Next-300-Signals------------>
662734 282934 698534 862244 462933
627342 621852 829349 127712 622446 629330
273423 218523 293497 778483 277122 228493
734230 784836 836430 790130 792260
342308 852328 364301 442918
423081 523282 643011 429182
230816 232829 430112 246016
308162 301124 148862 207862
081629 301649 291829 488620 078622 244629 241529 891639
816291 016494 244291 918292 886207 446293 813931 859241 415293 916393
162912 164943 442918 182928 127712 462933 152939 163931
629128 429182 629330 529398
291283 291829 895183 221703 293984
912831 951839 412771 813931 919601 313531
128316 179336 127712 170336 139317 018916 135310
283164 282934 130164 183244 293984 189163
831647 301649 832442 031057 891639
316477 349777 016494 310570 341277
164779 461479 164943 596779
647796 614790 967791 620786
477963 479013 677910 017933 462933
779633 778483 479013 779103 570133 179336
796336 784836 790130 791031 701338 179336 793360 170336
963362 943272 793360 903412 703368
633621 643011 933601 033685
336218 336014 336858 196018
362185 360141 766155 368585 960189 393135
621852 141832 661559 685855 924152 601891
218523 418324 217033 241529 228493
185232 141832 183244
852328 182928 292828 855148 862078
523282 943272 429182 829282 928287
232829 432723 239299 291829 292828 282879 244629 241529 022849
328293 327239 918292 928287 828792 446293 415293 228493
282934 182928 282879 287922 462933 885924 152939 293984 284936
829349 829282 867549 629330 859241 529398 022849 849365
293497 293300 293984 228493
934977 754957 034127
349777 659677 549576 341277
497778 596779 495769 412771 493658
977784 967791
778483 779103 228493
784836 514886 744416 284936
848364 418324 448604 148862 849365
483643 183244 486048 488620 493658
836430 016930 832442
364301 124601 169304 901301 360141
643011 246016 693045 013016
430112 460169 130164 429182
301124 301649 601414 300874
011246 013016 013386 014144 018916
112460 792260 144860 122170
124601 147901 922606 105701 933601 919601
246016 013016 226066 336014 744416 196018
460169 461479 130164 260665 495769 690179 360141 860489 444160 960189
601693 301649 606659 901793 601414 604895 881393 601891
016930 016494 017933 395930 813931 018916
169304 179336 959300 139317
693045 593006 393135
930459 860489 930060 398459 960189 931353
304596 066596 604895 300606 984591
045965 665967 048951 845919 849365
459654 659677 448604 559034 459196 493658
596544 596779 698534 590341 585514
965446 985347 622446
654461 224462 874441
544614 448604 585514 244629 744416
446147 486048 446293 444160
461479 860489 661559
614790 604895 615590
147901 105701 576901 048951 347661 155903 163931
479013 779103 057013 769017 489518 476615 639313
790130 792260 791031 570133 690179 793360 395930 393170 393135
901301 105701 701338 901793 933601 959300 931700 919601 601891 931353
013016 057013 013386 593006 317006 018916
130164 133867 930060 170065 189163
301649 606659 300606 891639
016494 066596 014144 087444 916393
164943 155903 462933 163931
649432 141832 629330
494327 418324 034127
943272 918292 903412 341277
432723 412771 462933
327239 324429
272392 277122
723929 324429 183959
239299 244291 839593
392991 395930
299141 360141 590341 859241
991418 601414 141448 903412 551488 592415 196018
914183 014144 414486 895183 514886 924152 960189 916393
141832 141448 144860 951839 148862
418324 448604 518395 488620
183244 183959 786224 862244 087444
832442 862244 622446 874441
324429 224462 244629 398459
244291 244629 446293 984591
442918 489518 462933 845919
429182 924152 459196
291829 282879 951839 244629 241529 891639
918292 828792 518395 688592 415293 916393
182928 287922 183959 885924 152939 100228
829282 879226 859241
282879 022849
828792 127712 688592 228493
287922 277122 207862 885924 284936
879226 179336 771221 859241
792260 793360 712217 591960
922606 933601 300606 622446 441606 919601
226066 006069 224462 416068
260665 060698 160688 170065
606659 006069 606985 661559 606888 700656
066596 060698 006568
596779 495769 690179
967791 957690 901793 984591
779103 570133 189163
791031 701338 771221 891639
910310 959300 930060 916393 135310
103105 393135 353100
031057 034127 330087 931353 531002
310570 615590 300874 393170 313531 310022
105701 155903
057013 017933 217033
570133 170336
701338 703368
013386 414486 033685 514886 018916
133867 144860 148862 139317
338675 033685 368585
386754 336014 336858 786224
867549 860489 661559 862244
675495 604895 615590 685855
957690 959300
769017 712217 139317
690179 393170 960189
901793 221703 881393 931700 601891 916393 931353
017933 217033 462933 813931 018916
179336 170336 629330 139317
793360 703368 293300 393170 591960
933601 033685 933008 931700 919601
336014 336858 330087 196018
360141 590341 960189
601414 903412 601891
014144 034127 008744 087444
141448 551488
414486 514886 744416
144860 148862 444160
448604 488620 441606
486048 416068 196018
860489 160688 960189
604895 606985 685855 606888 656885 601891
048951 858551 068881 018916
489518 585514
895183 855148
951839 152939 891639
518395 529398 916393
183959 152939 163931
839593 881393 639313
395930 393170 591960 393135
959300 629330 293300 931700 919601 353100
593006 293300 933008 317006 531002
930060 933008 330087 931700 170065
300606 300874 441606 317006 700656
006069 416068 006568
060698 160688 065688
606985 606888 656885
069853 068881 568859
698534 688592
534766 514886
661559 568859 241529
615590 688592 415293
155903 152939
277122 207862 078622
771221 786224
122170 393170
221703 931700 228493
217033 317006
170336 170065
703368 006568
033685 065688
336858 606888
368585 068881
685855 688813 656885
858551 859241
585514 885924
855148 859241
786224 885924
862244 859241 002284
622446 022849
224462 924152 228493
244629 241529
446293 415293 916393
462933 152939 163931
629330 529398 639313
293300 393170 293984 353100
933008 931700 531002
330087 310022
008744 002284
874441 859241
416068 006568 196018
160688 065688 960189 100228
606888 006568 656885 601891
068881 065688 568859
688813 688592 639313
888139 891639
881393 916393 931353
813931 163931 313531
139317 639313 135310
393170 393135 353100
931700 931353 531002
317006 310022
568859 398459
688592 984591
885924 845919
415293 916393
152939 163931
<------------Next-300-Signals------------>
046964 648965 516164 186969 796984 846174 064984
469641 489651 161645 869698 969846 461748
696419 296189 846489 896516 616455 696987 698461
964194 961890 974884 464896 965161 374394 920094 064984
641948 618908 648965 743943 461748 340648 245938 649848
419489 846489 211499 439438 617483 406482 112459 459382 352489 498486 409259
194898 197488 184648 464896 114995 174834 124593 524897
948987 648965 696987 143287 248975 028997 997907
489878 489651 969872 439438 414078 407818 482668 432876 489758 289979 649848
898786 896516 698723 897585 899790 790706 498486
987868 987236 407818 482668 287628 907062 984863
878688 869698 872368 579698 834668 078188 826680 876282 070628 285688 848631
786887 696987 796984 781882 706287 856885
868872 969872 818829 062874 568850
688722 698723 685492 328762 628252 628740 688509 091722
887229 987236 818829 188299 287628 917220
872296 872368 570996 475796 882994 382216 876282 172206
722961 709965 757969 822162 722064
229618 869698 579698 452618 221624 287628 285688 220649 236668
296189 846489 696987 205159 796984 526183
961890 464896 969872 969846 261834 568850
618908 648965 618341 688509
083351 933341 489651 010251
833519 333411 896516 863109
335197 334118 025157 631097
351974 341184 251570 310973
519748 515709 579698 461748 535248 489758 649848
197488 617483 897585 498486
974884 374394 943834 834824 174834 975854 064984 984863
748844 743943 943834 348245 748346 758545 649848
488446 411846 438348 482454 748346 483466 498486
884467 984617 483466 834668 984863
844679 846489 147579 846174 834668 848631
446793 475796
793334 943834 796984 791124
933341 438348 618341 938221 533791
333411 386011 368211 383482 183414 533791 337916
334118 860118 834668 834140 337916
341184 601186 846174 346685 341407 791124
411846 011869 969846 461748 911245 432876
118464 516164 118696 698461 183414 112459 162414
184648 161645 984617 834668 340648 482668 287628 285688
846489 846174 346685 406482 826680 876282 352489 856885
464896 475796 969846 466854 064826 432876 524897
648965 149955 348245 709965 698461 648266 248975 340925
489651 499556 482454 099652 482668 489758 409259
896516 499556 996520 094526 897585
965161 995565 965205 945261
651616 601186 452618
516164 515914 846174 526183
161645 461748 911245
616455 617483 112459 585455
164555 114995 149955 102515 124593 854553
645553 955653 825253 854553 545533
455538 556537 439438 452618 245938 252535 545533 455337
555386 565374 459382 525352 455337 553379
553860 593822 553379 568850
538601 938221 533791 848631
386011 368211 382216 885091 486310
860118 540138 850917 863109
601186 401387
011869 211499 013874 818829
118696 114995 188299
186969 757969 188299 289979
869698 579698 834668 899790
696987 796984 997907 706287
969872 969846 979070 062874 509172
698723 653743 138743 698461 628740 091722 591023
987236 387430 382216 917220 910236
872368 874301 834668 482668 822162 102366
723682 383482 781882 826680 791602 023666
236821 834824 266801 938221 216241 236668
368211 348245 668017 938221 382216
682114 482454 183414 882994 680179 382216 162414
821149 824540 834140 829942 822162 624143 220649 863109
211499 112459 241432 206498
114995 124593
149955 709965 248975 340925
499556 099652 094526 489758 498486 409259
995565 996520 965205 945261 897585
955653 825253 975854 854553
556537 252535 545533 455337
565374 515914 525352 553379 062874
653743 138743 624143 628740
537439 387430
374394 874301 174834
743943 743010 748346
439438 489758
943834 013874 174834 261834 975854
438348 138743 461748 748346 618341 414328 535248
383482 387430 483466 685492 183414 781882 406482 352489
834824 174834 834668 854920 834140 818829 234064 064826
348245 748346 346685 340648 648266 911245 248975 758545 340925
482454 483466 466854 183414 882994 482668 112459 162414 489758 585455
824540 854920 834140 829942 826680 124593 624143 854553 628740
245401 945261 341407 266801 245938 241432 287405
454013 452618 414078 854553
540138 340648 245938 545533 740528
401387 406482 459382 455337 706287 405285
013874 062874
138743 628740
387430 287405
874301 874052
430102 259102
301025 340925 591023
010251 017911 216241 910236
102515 520515 162414 282525 252535 102366
025157 205159 825253 525352 028997
251570 051591 252535 253524
515709 515914
157099 147579 757969 188299
570996 475796 579698
709965 757969 200945
099652 009452 791602 091722
996520 094526 299420 916028 917220
965205 945261 994202 911245 405285
652051 052856
520515 528568
205159 409259
051591 801791 092591
515914 017911 925910
159147 179112 259102
591475 585455 591023
914757 984617
579698 070628
796984 791124 706287 064984
969846 064826 649848
698461 618341 648266 498486
984617 984863
461748 489758
174834 261834 975854 109734
748346 618341 648266 758545
483466 183414 023406 482668 498486 023666
834668 834140 234064 482668 236668
346685 340648 826680 856885 340925
466854 261834 266801 975854 062874 568850
668549 618341 668017 758545 628740 688509
685492 585455 885091
854920 834140 854553 850917
920094 420234 722064
200945 202340 248975 220649 340925
009452 406482 509172 409259
094526 064826 091722 092591
945261 648266 938221
452618 407818 482668
526183 826680 624143
261834 266801 221624 241432 062874
618341 216241 628740
183414 162414
834140 624143
341407 241432
414078 414328 916028
140781 143287 160289
078188 070628
781882 791602
188299 160289 688509
882994 885091
829942 822162
299420 899790
994202 791602 997907
942023 916028 591023
420234 910236
202340 097340 102366
023406 973409 023666
234064 722064 734092 236668
340648 070628 740528 220649 649848 340925
406482 459382 876282 706287 405285 206498 498486
064826 762825 062874 052856 064984
648266 628252
482668 287628 489758 285688 236668
826680 876282 856885
266801 216241
668017 631097
680179 289979 688509
801791 533791 899790 885091
017911 337916
179112 379160 509172 259102
791124 221624 791602 091722 591023
911245 216241 917220 910236
112459 162414 352489
124593 624143 524897 854553
245938 241432 248975 545533 285688
459382 455337 259102
593822 091722 591023
938221 917220
382216 337916 172206
822162 328762 722064
221624 287628 253524 220649
162414 062874
624143 628740
414328 916028
143287 160289 706287
432876 062874 052856
328762 628740 528568
287628 070628 287405 285688 236668
876282 706287 874052 856885
762825 062874
628252 628740
282525 287405
825253 854553
252535 758545
525352 585455
524897 028997
248975 289979 340925
489758 409259
897585 856885
585455 287405
854553 874052
379160 979070
791602 790706 091722
916028 917220
070628 740528
706287 405285
062874 052856 064984
874052 734092
740528 340925
405285 409259
285688 236668
509172 259102
091722 591023
917220 910236
172206 102366
206498 236668
<------------Next-300-Signals------------>
815596 395696 915790 415544
155969 956969 891969 157906 155448
559697 763697 587667 569691 919690 259157
596972 636978 574952 696917 196903 526722 591579 528912
969728 907718 369783 969170 969033 267228 942528 289128
697288 697830 267228 672284 891283
972889 672284 912830 178839
728899 028919 722840 178839 788399
288990 289196 788399 883994
889907 883994 839949
899077 150077 835067
990771 590041 500771
907718 900412 007719 201318 807178
077181 077194 076331 013180 071788
771818 771941 201318 071788
718181 719411 702191 013180 318051 717883
181811 131805 180513
818118 807178
181180 013180
811808 854828 131805 051308
118086 128306 318051 513086
180867 587667 126827 150077 180513 130860 640807 080717
808674 876675 268274 308609 408071 807178
086747 682745 034757 086094 080717
867476 830456 827456 237076 860946 807178
674763 274567 370764 840763 154703
747636 745671 707641 749526 407633 547037
476369 475749 673339 956969 076331 470379
763697 733395 569691 763313 703791
636978 696917 272978
369783 969033 379193 563483 729783
697830 667590 690330 192430 791930 912830 067810 634832 297837
978304 903303 924307 919304 128306 678100 978377
783045 828045 682745 733395 193044 283068 781003
830456 280458 827456 333956 930448 830685 860946
304568 804587 274567 339569 304489
045688 045876 041268 745671 485618 071788
456885 456715 554485 856186
568854 268274 567150 533654 544856 561864
688548 682745 618640
885482 365452
854828 654526
548280 322280 545267
482804 222802
828045 228028
280458 280289 930448 289128 283068 186408
804587 274567 304489 864080
045876 745671 044894 544856
458766 456715 448561
587667 545267 547037
876675 830685
766759 306859
667590 567150 671500 068595 067810
675900 671500 685953 678100
759004 715007 919304 781003
590041 500771 330341 193044 094641
900412 303419 430712 930448 100322 946414
004126 034192 307125 654526 003220
041268 071253 545267 051308 071788
412682 452672
126827 123707 526722
268274 267228
745671 707641 243071
456715 430712
567150 969170 067810
671500 691702 678100
715007 835067 781003
150077 350678
500771 703791 506781 408071
007719 028919 303419 037919 067810 080717
077194 034192 379193 044894 086094
771941 707641 791930
194113 764103 196903 154703 180513
941137 641034 141547 547037
411371 410347 415470 470379 408071
113712 430712 313202
137123 307125 132025
371237 071253 327297
712370 712533 722840 415470 912830
123707 924307 228407 154703 128306
237076 243071 284076
370764 840763
707641 702191 407633 906541 703791 094641
076410 076331 065414 067810 946414
764103 763313 154703 781003 464141
641034 033034 341924 547037 641415 141554
410347 330341 419243 470379 415544
103475 191465 303419
034757 034192 080717
347574 341924 141554
475749 470379 425289 415544
757495 733395 554485 399495
574952 894252 528912 544856 994955
749526 654526 942528 949556
495267 545267 425289 835067 495563
952673 914653 452672 350678 955634
526733 526722 506781 729783
267333 969033 267228 407633 763313 297837
673339 690330 076331 633132 470379 178839
733395 253365 763313 703791 533525 788399
333956 533654 335250
339569 336545 839949
395696 399495
956969 891969
569691 919690
696917 196903
969170 919690 969033
917021 318051
170219 280289 320259 470379 180513 178839
702191 802891 202591 703791 252891
021914 028919 341924 025915 065414 037919 528912
219146 289196 419243 259157 289128
191465 891969 192430 541415 131805 641415 399495
914653 919690 414154 414155 994955
146532 141547 141554
465322 365452 100322
653222 654526 633132 313202 953352 003220 483272
532228 267228 132025 942528 533525 525028 032201 832729
322280 672284 722840 320259 425289 335250 322013 327297
222802 722840 228407 252891 352502
228028 267228 228407 289128 283068 525028
280289 320259 425289 250283
802891 202591 703791 252891 502835
028919 025915 037919 528912 028350
289196 284076 259157 379193 289128 283506
891969 591579 791930 891283 839949
919690 915790 919304 912830 618640
196903 157906 154703 186408
969033 859533
690330 192430 791930 595335
903303 924307 763313 919304 953352
033034 533654 633132 193044 086094
330341 336545 331320 930448
303419 304489 306859 308609
034192 633132 044894 634832
341924 331320 141554 348327
419243 415544
192430 791930 912830
924307 228407 919304 128306 978377
243071 284076 283068 408071
430712 080717
307125 807178
071253 891283 071788
712533 912830 859533 717883
125336 128306 595335
253365 283068 953352
533654 790654 533525
336545 906541 533525
365452 065414 335250
654526 654141
545267 547037 835067
452672 352502 350678 483272
526722 528912 525028 506781
267228 289128
722840 912830
228407 128306
284076 283068 283506
763313 563483
633132 634832
331320 335250 348327
313202 352502 483272
132025 533525 131805 832729
320259 425289 306859 335250 327297
202591 906541 703791 252891
025915 065414 037919 528912
259157 289128
915790 415470 912830
157906 154703 128306
906541 506781
065414 067810 946414
654141 094641 464141
541415 946414 641415 554485
414154 464141 414155 415544
141547 141554
415470 415544
547037 297837
470379 978377
703791 506781
037919 067810 839949
379193 399495
930448 155448
304489 306859 308609 554485
044894 086094 544856
448942 528912 448561
489425 289128 399495
894252 891283 994955
942528 949556
891283 250283
912830 502835
128306 028350
283068 283506
306859 308609
595335 502835
678100 618640
201318 051308
013180 513086
131805 130860
318051 408071
180513 080717
805130 807178
051308 071788 556348
513086 563483
086094 883994
860946 839949
414155 994955
141554 949556
415544 495563
155448 186408 556348
554485 563483
544856 949556
448561 408071 495563
717883 729783
839949 832729
348327 978377
<------------Next-300-Signals------------>
283840 263310 143848 163841 271240 773540
838401 438481 638412 531701 735400
384018 384818 314148 294028 384120 317012 354000
840184 848187 340004 940282
401846 481874 400044 402824
018460 818740 000440 094430
184601 187405
846011 874051 596021
460112 369412 120212 586112 472162 162712 960214
601128 694120 202122 861121 627124 602142
011282 941202 021229 940282 611215 051672 021422
112827 917727 412021 402824 112155 712407 170127
128270 177272 120212 028245 120930 124070 136770 228510
282704 282455 240709 367704 285109
827049 824559 677041 823859
270497 170127 770414
704975 024995 174875 701279 704140
049753 249954 549143 044063 009693 070953 748753 249323
497534 499549 491438 393634 487537 477354 493231
975349 936340 875372 932319
753494 133694 732294 953174 753723 770414 851094
534943 549143 336941 531748 510944
349438 491438 369412
494385 914384 414815 082385
943852 143848 941202 940282 823859
438526 438481 238596
385263 405163 727263 390203 115763 380823 385960
852633 051639 272636 157638 859602
526331 516393 726361 576380 596021
263310 363400 263613 103390 228510
633102 634000 636133 638412 033902 638082 602142
331024 340004 631414 339020 851094
310249 314148 710339 390203 200279 151249 319309 510944
102499 122939 103390 002795 512493 109443
024995 028245 012795 002795 027951 124932
249954 249323
995491 245591 193091
954914 455916 953174 930911 960214 944304
549143 559163 249323 109443
491438 591638 493231 094430
914384 916384 915124 944304
143848 163841 763808 443045
438481 141481 638412 638082 430459
384818 314148 414815 384120 380823
848187 148159
481874 481591 402824
187405 282455
874051 824559 677041 400051
740516 547216 770414 140666 000516
405163 559163 472162 406662 005167 115763
051639 021229 591638 051672 151249 157638
516393 212293 916384 412093 516729 512493 576380
163936 361336 122939 163841 120930 127956 124932
639363 636133 613369 559163 249323
393634 133694 591638 493231
936340 336941 916384 946920 956680 136770 932319 576380
363400 369412 367704 735400 354000 763808
634000 694120 339020 124070 668020 680200 735400 354000 638082
340004 390203 240709 367704 354000 540005 944304
400044 402824 407095 400051 510944 443045
000440 704140 000516 109443 094430
004406 209306 041406 000516 094430
044063 093065 414066
440631 140666 400051 493231
406314 402824 916384 406662 477354
063141 163841 065861 861121
631414 638412 611215 770414 625424
314148 384120 704140 214228
141481 041406 142285
414815 611215 174875 414066
148159 112155 748753
481591 245591 487537
815917 455916 095317 355317
159177 559163 953174 553170 170127 459327
591772 591638 531748 531701 051672 291512
917727 937867 317487 516729 915124
177272 120212 174875 875372 167291
772726 753723
727263 723553
272636 279566
726361 729151
263613 203073 279513
636133 671033
613369 600969 710339 319309
133694 939294 103390 732294 193091
336941 392940 322946 930911
369412 929402 638412 162712 317012 309115
694120 294028 384120 627124 668020 704140 094430
941202 929402 940282 841209 041406 944304
412021 402824 412093 414066 400051 596021 422851
120212 940282 120930 162712 124932 960214
202122 402824 307322 205472 472162 802002 602142
021229 028245 841209 073229 721627 701279 020027 151249 021422
212293 412093 732294 216271 012795 512493 214228
122939 120930 322946 127956 124932
229392 209306 229469 294692 249323
293929 073229
939294 732294 960214
392940 322946 385960
929402 229469 859602 021422
294028 294692 596021 214228
940282 960214 142285
402824 422851
282455 112155 372355 082385
824559 121554 723553 823859
245591 215545 235531 238596
455916 155456 355317
559163 554560 553170
591638 531748 795668 157638
916384 956680 915124 576380 944304
163841 065861 167291 193091 763808
638412 658611 638082
384120 339020 704140 354000 380823 385960
841209 240709 701279 041406 151249
412093 407095 012795 414066 512493
120930 124070 127956 124932 231930
209306 279566 249323 319309
093065 193091 443045
930658 930911 430459
306586 000516 304593
065861 005167
658611 378671
586112 786710 566802
861121 867103
611215 672915
112155 372355 012795 142285
121554 723553 127956
215545 235531
155456 127956
554560 553170 354000
545600 735400 540005
456009 354000
560096 540005
600969 200279
009693 002795 109443 304593
096937 095317 091157 094430 045932
937867 951367
786710 136770
867103 367704
671033 677041
710339 319309
103390 193091
033902 030732 045932
339020 668020 354000
390203 680200 380823
902030 802002
020307 920547 095317 020027
203073 205472 200279
030732 045932
307322 317012
322946 127956
229469 279566
294692 291512
946920 956680
692054 666254
920547 020027
205472 875372 200279
054721 753723
547216 537235
472162 406662 602142
721627 020027 021422
216271 200279 214228
162712 662542
627124 625424 915124
271240 254247 773540 151249 231930
712407 317487 542477 735400 512493
124070 174875 136770 424773 354000 124932
240709 200279 247735 540005 285109
407095 002795 400051 443045
070953 027951
709531 235531 729151
095317 355317 005167 091157
953174 553170 915124
531748 531701
317487 317012
748753 723553
537235 247735
372355 477354 672915 082385
723553 773540 729151 323193 823859
235531 231930 238596
355317 951367 459327
553170 513677
170127 020027
701279 200279 151249
012795 002795 512493 082385
127956 027951 124932
279566 279513 238596
795668 795136
956680 576380
566802 763808
668020 638082
802002 859602 602142
020027 021422
002795 082385
027951 729151 422851
279513 291512 249323 228510
951367 459327
513677 542477
770414 960214
704140 773540 602142
041406 021422
666254 960214
662542 602142
625424 915124 021422
254247 151249 214228
542477 512493
540005 443045
400051 422851 430459
005167 091157
051672 859602 021422
516729 596021
167291 193091
729151 422851
291512 228510
124932 045932
249323 459327
323193 304593
193091 596021
930911 960214
082385 142285
823859 422851
238596 228510
<------------Next-300-Signals------------>
234628 234557 233429 295658 936623 237826
346285 334295 366237
462858 262578 492138 463168 662448
628582 625789 723782 624489
285829 233429 681929 237826
858295 958675 757275 334295 581295 819299 826695 782295
582950 586757 572755 342956 812959 822959
829505 727555 801575 429565 129594 826695 229599
295056 251456 275550 295658 295944 278656 295993
950564 956588 557064 944514
505644 145614 702744 709624 570644 295944 865624 006624
056448 456145 027449 096248 956588 706449 959445 656247 066244 662448
564484 561459 962489 565881 064492 594451 562477 624489
644842 944702 744972 624894 644921 244894
448422 418342 447027 449724 448944
484223 449213
842234 741834 892514 352334
422345 418342 122625 925145 456145 523342 429565
223455 226257 251456 727555 233429 477455
234557 226257 275550 274497 847557 774550
345578 262578 145958 475570 745509 695278 247778
455784 625789 459586 449724 755706 455092 952786 477782
557840 257892 557064 527865
578403 578925 078723 599303 303403
784039 180539 180439 704289 787237 782669 034036
840399 819299 805390 804392 340360
403999 403600
039997 439287
399974 295944 304774 392870
999741 959445 299561 489441
997418 489418 995618 923118 894410
974183 894180 956180 944103
741834 941801 311804 244894 441037
418342 418015 523342 118043 448944 410372
183427 149447 180157 233429 383047 180439
834279 334295 819299 830477 704289
342793 342956 042890
427930 428907 959930
279301 299561 599303
793012 393662 723782 993034
930122 936623 930340
301226 378266
012262 015752
122625 192995 826695
226257 586757 366237 266952 656247
262578 867572 662373 289078 872378 562477 247778 662448
625789 675727 623736 723782 624777 624489
257892 455092 287042 907872 237826 777822 244894
578925 572755 575235 550923 078723 778229
789251 509231 787237 782295 489441
892514 944514 092311 894410
925145 959445 445146 923118
251456 451463 278656
514561 572761 594451 514631 299561
145614 100714 944514 146316 995618 865624
456145 959445 445146 956180 656247
561459 962489 594451 561805 562477
614595 624894 334295 018515
145958 342956 295658 185158 065928 043928
459586 429565 956588 439366 851581 659286 439287 952786
595867 565881 515812 592867 527865
958675 088475 138775 959445 928671
586757 180157 884755 387757 286718
867572 801575 847557 877572 867182 907872
675727 775727 671823 078723 669527 624777
757275 757276 787237 782295
572755 575235 884755 572761 477455
727555 429565 847557 727613 477455 774550 527865
275550 295658 475570 774550 278656
755501 755706 851581 745509
555011 565881 557064 515812 455092
550111 340101 550923
501110 401018 231180
011100 010185 231180 311804
111007 311804 118043 441037
110071 118043 410372
100714 702744 600884 304774
007149 027449 008847 706449 047745
071494 274497 064492
714944 702744 744972 295944 448944
149447 959445 489441
494470 724670 894180 475570 594451 392870 894410
944702 744972 246709 941801 944514 928704 944103
447027 449724 467096 847557 441037
470274 475570 570644 410372
702744 709624 706449 304774
027449 706449 047745 624489
274497 064492 244894
744972 644921
449724 709624 449213 448944
497246 096248 757276 445146
972467 962489 572761 592867 562477
724670 727613 928671 774550 624777
246709 286718 745509 247778
467096 455092 360066
670962 600662
709624 865624 006624
096248 695278 656247 066244
962489 952786 562477 662448 624489
624894 600884 129594 624777 624489 244894
248941 644921 295944 448944
489418 449213 401018 286718 289078 489441
894180 956180 867182 231180 890787 894410
941801 340101 101851 561805 311804 944103
418015 401018 018515 618053 118043
180157 387757 185158 180539 180439
801575 877572 851581
015752 515812
157523 158129 550923
575235 581295 509231
523523 823383 550923
235233 718233 233830 295993
352334 182338 338304
523342 823383 723782
233429 233830 237826
334295 581295 782295
342956 943936 812959 929956 822959
429565 439366 129594 299561 539065 527865 229599
295658 185158 295944 995618 390659 695278 278656 295993
956588 851581 956180 906592 952786
565881 515812 561805
658819 158129 316819
588194 581295 168192
881943 681929
819439 812959 819299 180439
194393 192995 804392 295993 599303
943936 623736 929956 053906 043928 959930 993034
439366 237360 539065 439287
393662 373600 390659 600662
936623 006624
366237 787237 656247 066244
662373 872378 562477 662448
623736 723782 624777
237360 233830 231180 237826 930340 340360
373600 303403 403600
736008 036006
360088 360066
600884 600662
088475 138775 018515
884755 387757
847557 387757 877572
475570 877572 774550
755706 775727 757276 053906 745509 952786
557064 539065 527865
706449 704289
064492 168192 804392
644921 681929 043928
449213 439287
492138 463168 182338
921387 823383
213877 233830
387757 383047 787237
877572 867182 907872 872378 477782 777822
775727 078723 777822 778229
757276 659286 787237
572761 592867
761340 930340
613401 303403
134010 034036 894410
340101 340360 944103
401018 441037
185158 182338
851581 631681
515812 316819
158129 168192 778229
581295 561805 782295
812959 819299 822959
129594 229599
295944 295993 448944
959445 959930 489441
594451 894410
944514 244894 944103
445146 448944
514631 509231
463168 923118
631681 231180
316819 311804
168192 867182
681929 671823
819299 229599
192995 782295 295993
929956 822959 959930
299561 229599
995618 923118 695278
956180 231180 952786 959930
561805 311804 527865
618053 718233 118043
180539 182338 180439
805390 804392
053906 043928 036006
539065 527865
906592 804392 907872 786562
065928 043928 865624
659286 439287 952786 656247
592867 392870 527865 562477
928671 928704
286718 289078 247778
867182 477782
671823 078723 777822
718233 118043 787237 778229
182338 180439 872378
823383 723782
233830 231180 237826
338304 311804 928704
383047 287042
830477 870428 890787 562477
304774 624777
047745 247778
477455 477782
870428 872378
704289 778229 624489
042890 244894
428907 448944
289078 247778
907872 777822
078723 778229
787237 782295
723782 477782
237826 777822
378266 278656 778229 360066
782669 786562 782295
865624 006624
656247 066244
562477 662448
624777 624489
<------------Next-300-Signals------------>
167170 907070 707171 717100 160151 467376
671702 070707 071710 171005 669752 770722 673761
717028 707071 717100 710057 707226
170289 975279 176949 350489
702892 752791 962812 504898
028928 628126 558628 048984
289286 281261 089446 586281 281366
892861 894467 862813 898441
928615 527915 998245 737615
286150 279151 480950 245110 248850 376155
861509 809501 248509 761559
615093 764093 415583 485095 615594 405293
150937 640938 155837 110077 100777 850954 850467 155948 052935
509376 409389 598386 558376 509540 504673 467376 294376 529355
093764 093890 583767 673761 943769
937640 907070 837678 501640 713640 737615 437698 118640
376409 176949 376786 016406 136407 376155 376986 186405 350489
764093 769495 164064 364077 864052 844193
640938 694958 640646 633998 640770 540278 640529 441939
409389 423589 469759 402786
093890 003000
938907 958447 136407
389070 310030 364077
890707 894467 100777 407707 850467
907070 003000 105010 007775 077072
070707 030001 050101 100777 077759 407707 770722 046737
707071 501011 007775 077072 707226
070717 010114 100777 077759 770722 046737 033317
707171 007775 707226
071710 001330 011480 077759
717100 915160 612140 623100 618110 451100 713640
171005 151601 121408 231003 181105 148095 511007 186405
710057 310030 811050 511007 110077
100574 140894 100300 110501 110077 100777 604474
005746 015176 089446 095016 007775 402786 885046 044746
057466 089446 016406 597966 027863 850467 447469
574669 584479 510469 064659 979663 504673 474691
746697 104697 646597 796633 759677 046737 746913
466975 046975 406465 465979 467376 469135
669752 469759 659796 864052
697527 601517 697598 646597 640529
975279 975983 465979
752791 659796
527915 597966 737615 529355
279151 376155
791516 095016 777596 761559
915160 612140 618110 950164 245110 813660
151601 121408 181105 110501 050101 451100 136604
516015 501011 511007
160151 126121 110501 050101
601517 501011 646597
015176 010114 095016 016406
151769 943769
517694 615594 437698 511864
176949 155948 376986
769495 769860 469135
694958 697598 633998 293558 691350
949584 944674 559484 935586 913504 048984
495844 408944 399824 594842 489844
958447 998245 954027 850467 948429 660447 898441
584479 510469 504673 604474 984419
844796 659796 044746 844193
447962 446742 597966 447469 441939
479628 979663 278638 437698 558628 474691
796281 386231 786461 646181 796633 596771 786384 586281
962812 983862 862310 461811 967713 863842 862813
628126 623100 678646 618110 677136 638424 628136
281261 386231 786461 586281 281366
812612 862310 864618 862813 813660
126121 646181 226591
261214 461811 265918
612140 623100 618110 713640 118640
121408 181105 101148 136407 186405
214089 114809
140894 148095
408944 488504 048984 489844
089446 016406 885046 044746 489844
894467 850467 898441
944674 504673 604474
446742 046737 044746
467423 967713 467376 447469
674235 344835 677136 072265
742358 448351 441558 722659 842488
423589 483510 415583 424885
235898 633998 265918 437698 135048 504898
358980 339982 376986 350489 048984
589803 489844
898034 133034 898441
980344 330344 950164 786384 489844
803448 303441 101148 723248 863842 842488 898441
034483 034415 011480 232485
344835 344155 324850 424885
448351 441558 248850
483510 480950 488504
835104 136604
351046 885046 551186 366044
510469 850467 511864 447469 350489
104697 100777 504673 474691 504898
046975 007775 046737 052935 746913 048984
469759 064659 465979 077759 761559 469135
697598 646597 633998 777596 615594 437698 293558
975983 415583 979663 775967 376986 935586
759838 155837 759677 769860 755118
598386 558376 597966 294376 551186
983862 583767 863842 943769 355862
838623 837678 918723 638424 698603 558628
386231 786461 187232 384248 986033 586281
862310 864618 872324 860333 862813
623100 618110 451100 628136
231003 511007
310030 811050 110077
100300 110501 105010 100777
003000 105010
030001 110501 050101
300013 105010 501011
000133 050101 010114 860333
001330 011480 501640 603331 691350
013303 016406 033317 913504
133034 164064 136604 135048
330344 366044
303441 603331 898441
034415 232485 737615 033317 984419
344155 324850 376155 333175 331755 844193
441558 761559 293558 441939
415583 615594 405293 935586
155837 155948 355862
558376 467376 294376 551186 558628
583767 673761 943769
837678 737615 437698
376786 402786 376155 376986
767864 164064 771364 027863 769860 511864
678646 640646 677136 278638 698603 118640 628136
786461 406465 982451 786384 186405 586281
864618 064659 824511 265918 864052 862813
646181 646597 659187 586281
461811 501011 862813
618110 010114 245110 118640 628136
181105 101148 451100 186405
811050 011480 511007 864052 813660 691350
110501 114809 809501 110077 317551 175511 913504
105010 095016 245110 175511 135048
050101 950164 451100
501011 501640 511007
010114 950164
101148 501640 155948 135048
011480 016406
148095 485095
480950 850954
809501 824511 509540
095016 095402 885046
950164 850954 850467
501640 713640 509540 504673 118640
016406 136407 095402 186405
164064 364077 864052 366044
640646 640770 640529 660447 044746
406465 186405 447469
064659 077759 722659 761559 864052
646597 226591 046737 615594 640529
465979 265918 467376 441939
659796 659187
796633 698603 986033 746913
966339 986033 860333
663399 603331
633998 437698
339982 376986
399824 489844
998245 898441
982451 984419
824511 226591 175511
245110 265918 248850 755118
451100 551186
511007 511864
110077 364077
100777 640770 407707
007775 407707 077072
077759 077072
777596 707226
759677 659187
596771 591872 586281
967713 918723 862813
677136 628136
771364 872324 786384 511864 281366
713640 723248 118640 813660
136407 186405 136604
364077 954027 864052 366044
640770 540278 640529
407707 402786
072265 052935
722659 761559
265918 155948 755118
659187 559484 551186
591872 594842 511864
918723 948429
723248 384248
232485 842488
324850 424885 248850
248509 248850 488504 948429 640529
485095 885046 484294 405293
850954 850467
278638 558628
786384 586281
863842 594842 864052 862813
638424 948429 604474
384248 484294
842488 842943
488504 484294 913504 489844
885046 135048
850467 660447 350489
504673 604474 504898
046737 044746
467376 294376
673761 943769 603331
737615 437698
376155 376986 333175 331755
615594 913504
155948 755118 135048
559484 551186 350489
594842 504898
948429 640529 447469 984419
484294 405293 474691 489844
842943 862813 746913 844193
429437 469135
294376 281366
943769 447469
437698 474691
860333 862813
118640 813660
186405 136604
447469 441939
<------------Next-300-Signals------------>
